Red,Green,Time difference (millis),Unix timestamps
108.85007820739963,36.452496230973,0,1658405234424
109.02918074445296,36.7928287139903,41,1658405234466
109.19224547812661,37.186143254962644,41,1658405234507
109.23547024302661,37.23123466123797,47,1658405234555
109.24283732669636,37.31172259326453,34,1658405234589
109.34549387543728,37.37349688388445,41,1658405234630
109.44450537720166,37.58496668547128,40,1658405234671
109.54844072036656,37.73712211837045,40,1658405234712
109.69723479025333,38.05647934109771,40,1658405234753
109.76745412647733,38.22884901741182,41,1658405234795
109.83153406772743,38.358638359765294,40,1658405234835
109.94026611410783,38.5671484180048,40,1658405234875
109.94026611410783,38.5671484180048,41,1658405234917
109.94315375101996,38.75160595517735,41,1658405234959
109.96476147178856,38.84525878364761,40,1658405234999
110.02760895737299,38.963700811435004,41,1658405235040
109.58581441702853,38.219317267458884,39,1658405235080
109.16986495009633,37.353387743885996,42,1658405235122
108.81652940553738,36.62647570518591,40,1658405235163
108.52148827965624,36.0442015291948,41,1658405235204
108.35695248682691,35.595044358799356,41,1658405235245
108.23824840443166,35.37728879832109,40,1658405235286
108.37616938097074,35.629709319497465,42,1658405235328
108.62802796954617,35.95270262986271,40,1658405235369
108.77410545969622,36.269784592764815,40,1658405235410
108.98878256988576,36.581793770942376,39,1658405235450
109.02009632751395,36.676702069219004,41,1658405235491
109.11121011248667,36.79568674093338,41,1658405235533
109.17065260047735,36.95541292763881,40,1658405235574
109.25503934869454,37.146584435912324,40,1658405235614
109.44833980390655,37.506540157774744,41,1658405235655
109.62308306233018,37.742358397335465,40,1658405235696
109.81618409455649,38.03606496299642,40,1658405235737
109.89601553988769,38.23955455640186,40,1658405235778
110.08687986327226,38.61185079746268,41,1658405235819
110.17895398751705,38.81084766434797,41,1658405235860
110.28756760667324,39.02051738554664,40,1658405235901
110.36786339277774,39.19931309332696,40,1658405235942
110.46051613791212,39.398355148157655,40,1658405235982
110.13656451183897,38.888962356489365,41,1658405236024
109.66401101041856,37.99601909526484,42,1658405236066
109.2429191776506,37.10781635006228,40,1658405236107
108.92757054355798,36.394615635253444,39,1658405236146
108.53609654277022,35.62459038824599,41,1658405236188
108.52840107496564,35.50350811124413,41,1658405236229
108.55732428673815,35.65813071590581,41,1658405236271
108.7723129305125,36.06338804607352,40,1658405236311
109.10551705244603,36.63893371207705,40,1658405236351
109.18841885734332,36.791351816468485,40,1658405236392
109.26153139363981,36.861181638622234,41,1658405236434
109.29766323599466,36.97674228984358,40,1658405236474
109.58435230653794,37.337508464207126,41,1658405236516
109.67426352960848,37.47362590435636,40,1658405236557
109.78557575623171,37.71773638509845,41,1658405236598
109.89011670293604,37.90955890783441,41,1658405236639
109.97827688790721,38.101781943822495,40,1658405236679
110.17361696871717,38.48213111901217,41,1658405236721
110.19939422318396,38.63375499764848,41,1658405236763
109.99419343568786,38.58568316909427,41,1658405236804
110.06422568716528,38.68982990087895,40,1658405236844
110.31428716100191,39.04100259500586,41,1658405236885
110.34827200496761,39.2015972177725,40,1658405236926
110.29655431395508,39.16770917024142,41,1658405236967
109.59567919317016,37.80443382899844,41,1658405237009
109.14764536748737,37.010225329915905,40,1658405237049
108.8519610475696,36.329948519740995,41,1658405237090
108.64633280719659,35.841041358929154,40,1658405237131
108.52128645724821,35.59646559401718,42,1658405237173
108.60747149719612,35.75552326324221,43,1658405237216
108.8558447271983,36.10578936555857,37,1658405237254
109.03726391359749,36.430590357047855,42,1658405237296
109.2724791908779,36.66402185728937,39,1658405237335
109.41541697388493,36.93377176862556,41,1658405237377
109.47482038445554,37.0393998936672,40,1658405237417
109.5556606841161,37.199540268306336,42,1658405237460
109.65362585532824,37.36070452980681,40,1658405237500
109.76247936924085,37.575680636943545,41,1658405237542
109.92321815868956,37.7805200317121,40,1658405237582
109.98226172814287,38.21889649940899,40,1658405237623
110.09749792237699,38.41064649263828,40,1658405237664
110.20256299365167,38.62121823378595,40,1658405237705
110.27976689083425,38.800370121530534,41,1658405237746
110.43836117253215,39.08824097282107,41,1658405237787
110.51948707838528,39.30633973545534,41,1658405237829
110.62902962628692,39.4636240583948,39,1658405237869
110.6959647902072,39.60330311770431,41,1658405237910
110.49258572305757,39.26621541052386,40,1658405237951
110.05013379831126,38.454757044658805,41,1658405237993
109.68795006393935,37.58297096613192,40,1658405238033
109.10068130843251,36.43648220136068,40,1658405238074
108.9376168368778,36.09430302211293,41,1658405238116
108.9039384936782,35.98890140593153,40,1658405238156
109.06148369952666,36.16440498914933,41,1658405238197
109.24236985100794,36.536534579879806,42,1658405238239
109.48440222713589,37.03970364771879,41,1658405238281
109.55013308384218,37.16318090186792,40,1658405238322
109.61853684917196,37.21520771733905,39,1658405238361
109.86870357782482,37.46534707383283,40,1658405238401
110.0980906912452,37.776792792126514,46,1658405238448
110.17697347159924,37.9638671566081,36,1658405238484
110.28410092263147,38.19014706963633,41,1658405238525
110.43011390982679,38.43894481766525,40,1658405238566
110.62400969304213,38.90061633651743,41,1658405238607
110.61204234105486,39.0115805988283,40,1658405238648
110.71231246561598,39.23968347412592,41,1658405238689
110.800299837588,39.40297092185378,41,1658405238730
110.82834725174592,39.58731977337809,40,1658405238771
111.05335870495219,39.9735060543005,40,1658405238812
111.17571171999106,40.19170144891985,41,1658405238853
111.23110510893838,40.376720614338794,41,1658405238894
111.34338600872309,40.343339119905586,40,1658405238935
110.94456310711217,39.54967088655282,41,1658405238977
110.19859518334624,37.97808666979789,40,1658405239017
109.99678298439306,37.51905491401997,42,1658405239059
109.84971932761107,37.224462221644785,39,1658405239099
109.80195691470374,37.1327830555533,42,1658405239141
109.97627134217635,37.55122317806437,39,1658405239181
110.15045906618116,37.863082546537896,41,1658405239222
110.26614541455342,38.07459277709811,40,1658405239263
110.33907463749603,38.26160797085496,40,1658405239304
110.42534676128179,38.53041549906074,41,1658405239345
110.50598646096472,38.62824117278528,40,1658405239386
110.60445275538859,38.8157913176721,41,1658405239427
110.75094405636378,39.12001825224407,40,1658405239468
110.82784078883617,39.3095848827633,41,1658405239509
110.94417419453197,39.68813996952151,41,1658405239551
111.10153917887669,39.95054255773904,40,1658405239591
111.20467189426051,40.15114532369505,40,1658405239632
111.27788626935,40.32354915945173,42,1658405239674
111.330381417946,40.54604665578483,40,1658405239714
111.47572186768917,40.865159356871025,41,1658405239756
111.6085816362405,41.07603186152144,40,1658405239796
111.71041110248905,41.31979043923731,41,1658405239837
111.53896432544633,41.23370347860301,40,1658405239877
111.1635424221659,40.53109515039594,41,1658405239919
110.70829444919627,39.55723346111463,40,1658405239960
110.2806680580332,38.58210184449083,41,1658405240001
109.95519566142673,37.84937979334756,41,1658405240043
109.69205812685277,37.32611694077379,40,1658405240083
109.55884017229727,36.92978541663636,40,1658405240124
109.7233634342827,37.13234029381546,41,1658405240165
109.91370395048807,37.512636910390555,42,1658405240207
110.4608657485926,38.167622588351286,40,1658405240247
110.55423996366005,38.337538348502555,40,1658405240288
110.68963530781781,38.49778858173124,41,1658405240329
110.72972482329186,38.69638613412976,41,1658405240370
110.82909593457293,38.85931516520396,41,1658405240411
111.04256342836891,39.23903322659393,40,1658405240452
111.14278142178455,39.51850391028679,40,1658405240493
110.99099856828138,39.6225981564811,41,1658405240534
111.10566409301839,39.868231914817,40,1658405240575
111.15332721745142,40.11157054893738,40,1658405240616
111.33114554781702,40.5213214758413,41,1658405240657
111.4639050017986,40.76052535776688,40,1658405240698
111.56499412894323,40.96107066205087,41,1658405240739
111.76095288566813,41.34317862075465,41,1658405240780
111.82001543042838,41.564445864334715,40,1658405240821
111.90470048082034,41.75984205836553,41,1658405240862
111.9071534452259,41.85442261699331,41,1658405240903
111.25045962805837,40.549838513921436,40,1658405240944
110.7701931623111,39.49446265244394,41,1658405240985
110.37243900564084,38.63861820419204,40,1658405241026
109.9492874390582,37.88609173658745,41,1658405241067
109.73223313920937,37.50096609732077,41,1658405241108
109.7019080568233,37.26198187995665,40,1658405241149
109.92718035463162,37.62633264630488,40,1658405241190
110.13007437090107,37.9852706321648,41,1658405241232
110.2597451017333,38.23781785904749,41,1658405241273
110.33443249864905,38.38832951596706,41,1658405241315
110.38517677869214,38.607255371923465,39,1658405241354
110.48216902519431,38.69337885358992,42,1658405241396
110.53385097478395,38.85356497333082,40,1658405241437
110.62798431674383,39.0688461525499,40,1658405241477
110.8260985878403,39.48361030837371,40,1658405241518
110.96499532255069,39.74326867867953,40,1658405241558
111.28626884068706,40.13205387235057,41,1658405241600
111.3908053378126,40.37718627251237,40,1658405241641
111.50067584564374,40.610696431025396,41,1658405241682
111.70155383210391,41.07348351252429,40,1658405241723
111.76986643362835,41.28500331569937,40,1658405241764
111.85665242069024,41.46152607136009,41,1658405241806
112.14662805482129,41.982340063981916,39,1658405241846
112.25861693311242,42.23566025385211,41,1658405241887
112.23236056121522,42.26199167518341,41,1658405241928
111.93794830981113,41.789935907101466,41,1658405241969
111.00445285677745,39.80790293669709,40,1658405242010
110.65367021412231,38.904198996591084,40,1658405242051
110.33465877441199,38.248217356469645,42,1658405242093
109.97858158673296,37.693779744848676,40,1658405242133
109.90827500458454,37.498334574914516,41,1658405242175
110.22773703688034,37.96540850713991,40,1658405242215
110.37207741344719,38.24304357598509,40,1658405242256
110.46144314535644,38.450191566674384,40,1658405242297
110.54102011425266,38.60939044526903,41,1658405242338
110.61737125180122,38.71865158858188,40,1658405242378
110.97943315208136,39.15434002407437,41,1658405242419
111.0929251670508,39.31667730082549,41,1658405242461
111.19173068573559,39.50657129393272,40,1658405242502
111.40750269375502,39.934772714465716,40,1658405242542
111.53139093859323,40.19633260377255,41,1658405242584
111.61935259747975,40.42686704356612,41,1658405242625
111.47569877681008,40.548386534685534,40,1658405242666
111.57291612649146,40.73900032007627,42,1658405242708
111.74994168040666,41.17071662260875,40,1658405242748
111.81146836506161,41.31543314496936,40,1658405242789
111.87701129980059,41.48239988602225,41,1658405242830
111.9532179243763,41.65775010171361,41,1658405242871
111.96497496984784,41.810921323100665,40,1658405242912
111.83923552764503,41.7472223661946,41,1658405242953
111.45803176942275,41.09355333412142,41,1658405242995
111.0252137259298,40.12024606206123,39,1658405243035
110.64446203975581,39.24637921808632,41,1658405243076
110.17798207567796,38.13713095146314,41,1658405243117
110.10955402077525,37.918286597184526,40,1658405243158
110.28844487357799,38.023909370349976,41,1658405243199
110.43221040742975,38.28676299925377,40,1658405243240
110.69770013779384,38.86037729043143,41,1658405243281
110.73843670618322,38.98537018848553,41,1658405243322
110.73359526608493,39.03763147639028,42,1658405243365
110.81900629499086,39.139704295089786,39,1658405243404
110.87904228429073,39.297559541840855,40,1658405243445
111.04983454837145,39.61104407202044,41,1658405243486
111.1293721522967,39.7975780342264,42,1658405243528
111.16176350688932,40.0022889465392,40,1658405243569
111.43472412170837,40.45407018042008,42,1658405243611
111.4624113542996,40.636155214217546,38,1658405243650
111.49856571480541,40.79057014819989,41,1658405243691
111.50644254821361,40.926334850592404,41,1658405243732
111.6124668258505,41.15589779111184,41,1658405243774
111.62933357266519,41.37330418926744,39,1658405243814
111.869853321579,41.72853508104288,41,1658405243855
111.9550719938589,41.9815125067169,41,1658405243897
112.05972183011767,42.21178812022458,40,1658405243937
111.97002314649035,42.03904683017191,40,1658405243978
111.4196971485531,41.10792599167207,41,1658405244019
110.9972284607428,40.01204108728755,40,1658405244060
110.63578722753198,39.15420198213303,41,1658405244102
110.33913366172459,38.47349860770892,41,1658405244143
110.02990281932796,37.70897262448068,39,1658405244183
110.05373701375419,37.70758422556445,41,1658405244224
110.29708982493031,37.982090637625085,41,1658405244265
110.4775103884541,38.35317533790227,42,1658405244307
110.63236216749897,38.618664644945795,40,1658405244347
110.74976573859618,38.91461286993651,40,1658405244388
110.76191780337433,39.039287601481114,41,1658405244429
110.83127632175751,39.15006143700003,40,1658405244470
110.89294078974496,39.33304871961576,41,1658405244511
111.04444561714115,39.6769185964679,41,1658405244552
111.14735214492617,39.88772261974928,41,1658405244594
111.26494364545084,40.16719698437382,40,1658405244634
111.50723513951914,40.682790522564645,40,1658405244675
111.50723513951914,40.682790522564645,40,1658405244716
111.73962622521094,41.23650139258515,40,1658405244757
111.80799538202763,41.47587502215392,41,1658405244798
111.95090413460207,41.70003335541856,41,1658405244839
112.11980313513209,42.111724468626505,40,1658405244880
112.23046698400344,42.346993472339406,41,1658405244921
112.30321398174164,42.54995479774116,41,1658405244962
112.16219975177034,42.52106778417625,41,1658405245004
111.1777731272299,40.7276130408002,39,1658405245044
110.70089769725996,39.59137188543525,42,1658405245086
110.3188351832215,38.70904023411835,40,1658405245127
110.05991450176111,38.05677315802006,40,1658405245168
109.86762153941999,37.66299316364128,40,1658405245208
109.93692483039922,37.61479016100883,40,1658405245249
110.14718243598463,37.97400212365118,40,1658405245290
110.21223867083398,38.25376798621234,40,1658405245331
110.27377402982768,38.37594625512777,42,1658405245373
110.26365763987451,38.559703100430575,39,1658405245413
110.36266960992634,38.67061370642179,41,1658405245454
110.43356750521662,38.79887179749097,40,1658405245495
110.51722848481842,38.94521693182926,40,1658405245536
110.60348727037973,39.18730808875677,41,1658405245577
110.9705399578412,39.72140224453245,40,1658405245618
111.09201798332418,39.97656116395756,41,1658405245659
111.19191164781853,40.3058678654789,41,1658405245701
111.35247627399963,40.531820058043536,40,1658405245741
111.52431391713759,41.04263252555205,41,1658405245782
111.58932746593882,41.22336859092605,40,1658405245823
111.69837486816061,41.44543509807372,40,1658405245864
111.73311342980668,41.597533095980616,41,1658405245905
111.93801385751146,42.04916126864203,40,1658405245946
112.02187492777318,42.20968336917929,42,1658405245988
111.88601812106378,42.168491839666316,40,1658405246028
111.4573931188936,41.50729057151804,41,1658405246069
111.05704324066869,40.46971719662595,40,1658405246110
110.23809381124022,38.66260644327634,41,1658405246151
110.00489120166162,38.05028253367852,40,1658405246191
109.83692949496299,37.79118648300596,42,1658405246234
109.81187299121285,37.70040208076004,41,1658405246275
110.13239827480311,38.19478248002978,40,1658405246315
110.25242398856687,38.47470493132632,40,1658405246356
110.44428640312901,38.671514351878386,40,1658405246397
110.48430162331971,38.81742244360602,42,1658405246439
110.58519121320433,38.98697306532071,39,1658405246479
110.73562805895824,39.238162675789646,41,1658405246520
110.77551636578266,39.41565826013872,40,1658405246561
110.87198589393336,39.63571232072352,41,1658405246603
110.96100062047242,39.83922659189989,40,1658405246643
111.20727512435218,40.354812389375674,40,1658405246684
111.35243289111531,40.60386765241245,40,1658405246724
111.45404968499611,40.85191924383887,42,1658405246766
111.52983217166843,41.1400390299921,40,1658405246807
111.65287413999226,41.45747841781997,40,1658405246848
111.71805435844414,41.64920404812887,41,1658405246890
111.58571151653524,41.66195354663835,40,1658405246930
111.63367005746136,41.78810867579917,40,1658405246971
111.68609822738438,41.958411217534895,41,1658405247012
111.48794984963257,41.75206049180947,41,1658405247054
111.0506340697213,40.888203471561035,40,1658405247094
110.53510793636389,39.81569167458599,41,1658405247135
110.0932161376951,38.26630223786438,41,1658405247176
109.83207873455365,37.77194489930508,41,1658405247217
109.7381718677434,37.465066312270366,40,1658405247258
109.75652808443095,37.49753738708107,41,1658405247300
110.02218761664801,37.97341010962788,40,1658405247340
110.12154596548464,38.173888927450996,40,1658405247381
110.18845588833693,38.293763596499396,41,1658405247422
110.01339882440516,38.2699229813599,40,1658405247462
110.08003847926,38.41597294768879,41,1658405247504
110.15675220763131,38.495187738178934,40,1658405247545
110.18081585173115,38.620822419873114,41,1658405247586
110.31867065392595,38.81483294330377,40,1658405247627
110.44171923015574,39.03616984298502,40,1658405247668
110.56785107624057,39.25522905877893,41,1658405247709
110.76486852040688,39.753226332977455,40,1658405247749
110.83316717130492,39.96571618707817,41,1658405247791
110.91541639607044,40.15963281094601,41,1658405247832
111.01045245929254,40.395715345812214,41,1658405247874
111.11247740758768,40.58001049720496,40,1658405247914
111.2174313055163,40.78960654864633,40,1658405247955
111.37574696226898,41.152866555018925,41,1658405247996
111.47503091273808,41.37645232300206,40,1658405248037
111.382075032675,41.41073139378732,41,1658405248078
110.94284058232853,40.69845236709423,41,1658405248119
110.4345301011528,39.641809138882316,40,1658405248160
110.00512787740786,38.74850510120536,41,1658405248201
109.71118106916845,37.97746125551892,40,1658405248242
109.40406581158254,37.249202332193605,40,1658405248283
109.4434242963955,37.20836885350856,42,1658405248325
109.55371072556687,37.43766051339548,40,1658405248365
109.75406261664796,37.70530360702032,40,1658405248406
109.94630300498818,38.1184513470865,41,1658405248447
110.02298697252041,38.201489144679954,41,1658405248488
110.06321715633055,38.33261470208055,40,1658405248529
110.14632750818976,38.360617701199985,41,1658405248570
110.18785581642209,38.52689839555421,40,1658405248611
110.32046077690558,38.83985028436248,41,1658405248652
110.43731129608415,38.99564280464656,41,1658405248694
110.47537650550521,39.19044152264951,40,1658405248734
110.58988825223037,39.406349703529486,40,1658405248775
110.68198832997768,39.73523727077235,41,1658405248816
110.75364634468559,39.91052606528184,40,1658405248857
110.80954271270087,40.10648490338908,41,1658405248898
110.87924387204635,40.24313693316595,41,1658405248940
110.93643418380577,40.378514584463886,40,1658405248980
111.07451315938675,40.67797073728916,41,1658405249021
111.17047511104619,40.854014415951085,41,1658405249063
111.10790041020766,40.84196776613376,39,1658405249102
110.40009791853845,39.5531799894401,41,1658405249144
110.07407621529586,38.771054121182836,40,1658405249184
109.83753867118662,38.19491658065573,41,1658405249226
109.68301134279756,37.87135240868917,41,1658405249268
109.65117820213686,37.86363837462711,40,1658405249308
109.75663878711578,38.039820107572844,40,1658405249349
109.88927788036472,38.238931756556674,41,1658405249390
109.91803820439117,38.381373352341136,41,1658405249431
109.92486299556413,38.44031687074229,40,1658405249472
109.95087701190675,38.47882732291252,42,1658405249514
109.98951182064741,38.561360387444886,39,1658405249554
110.14341200868131,38.767517285291156,42,1658405249596
110.19717176065785,38.88415429283607,40,1658405249636
110.27081741020277,39.19056930919101,40,1658405249677
110.38131727504026,39.26063748451532,41,1658405249718
110.40281713234987,39.4391375668789,41,1658405249759
110.51496558477004,39.605345003542695,40,1658405249800
110.42082271700872,39.69742495340047,40,1658405249841
110.42743946985922,39.701779614515615,41,1658405249882
110.4476096077534,39.71835445224339,41,1658405249923
110.48849093631452,39.77429764569488,40,1658405249964
110.56291071422754,39.88874441406486,40,1658405250005
109.83800016934305,38.878936526445905,41,1658405250046
109.29940912225368,37.79941493087751,41,1658405250087
109.20567384601213,37.13605069784,40,1658405250128
108.92343853457282,36.605984154700266,41,1658405250169
108.51034588031803,35.669845713695715,40,1658405250209
108.44792164387422,35.58824937664316,43,1658405250253
108.5341508784951,35.696032288799834,39,1658405250292
108.59462742153119,35.910658413962445,40,1658405250333
108.66544422916559,36.08788302868557,41,1658405250375
108.67550863276603,36.25550846244333,42,1658405250417
108.7158802190487,36.2832182581551,39,1658405250456
108.70682181461427,36.28611360790786,41,1658405250497
108.7481455490377,36.36986440710776,41,1658405250539
108.83422934089265,36.544700966009515,40,1658405250579
109.13301483579488,36.94726447199361,41,1658405250620
109.0550454554209,37.05653853164614,41,1658405250661
109.19317597144732,37.186236978011635,40,1658405250702
109.3085254129204,37.47955177088241,40,1658405250742
109.39465295286277,37.55762419413164,41,1658405250784
109.48026706119464,37.7194672615236,40,1658405250825
109.53847268429297,37.8426834980378,42,1658405250867
109.57881905561777,37.94519908854729,41,1658405250908
109.97903906019417,38.62266601822119,39,1658405250948
110.06595707109341,38.86231753847951,41,1658405250989
109.89718665972748,38.649832723457564,41,1658405251031
109.450120172536,37.90946456995938,40,1658405251072
108.56825494790985,36.27647372998754,42,1658405251114
108.34906725679707,35.81411697322922,44,1658405251159
108.06394154958463,35.43778330640267,35,1658405251195
107.97598599369451,35.303685900377886,41,1658405251236
108.03127034524283,35.3638528909722,40,1658405251276
108.35710622889485,35.94394745202603,41,1658405251318
108.44758711842542,36.21109710537853,40,1658405251358
108.64053419190333,36.494167149119235,42,1658405251400
108.69417529929711,36.7230794449599,39,1658405251440
108.98040776242277,37.0464701321522,41,1658405251481
108.98955392209922,37.1147602646465,41,1658405251522
108.95744721101403,37.074469702980174,40,1658405251563
109.03749413979426,37.12471473669937,40,1658405251604
109.12428324854653,37.37911536756543,40,1658405251645
109.2390075974472,37.561029557280975,40,1658405251686
109.2327822559534,37.7103883680736,41,1658405251727
109.29271865735979,37.83365259365627,42,1658405251769
109.25395587626525,37.76489481666884,39,1658405251809
108.96962630693241,37.41446964456874,41,1658405251850
108.90956544922773,37.23912759020291,40,1658405251891
108.91492295568946,37.213984413916236,41,1658405251932
108.95506257622816,37.20918665886331,40,1658405251973
108.64026139732374,36.80149473110519,41,1658405252014
108.32286431985801,36.24474473508105,41,1658405252055
108.0750287954412,35.69629708490334,42,1658405252098
107.8474974551068,35.36610046892709,39,1658405252137
107.37503367973716,34.720811448981685,40,1658405252178
107.22367286786437,34.53037065341916,41,1658405252219
107.37020089532768,34.6829491736162,41,1658405252260
107.53105443012839,35.02563932514937,40,1658405252301
107.76211478149935,35.33466654306778,41,1658405252342
107.584899830562,35.218388590683396,40,1658405252383
107.4095313025594,34.90379436286054,40,1658405252423
107.5414991309724,35.0664744722463,41,1658405252465
107.75149013246062,35.47238920250156,40,1658405252506
107.85227030550107,35.71491463487367,41,1658405252547
108.23425029514658,36.15823632212835,40,1658405252588
108.467522306896,36.61744555593012,42,1658405252630
108.6376547332369,36.96102839889412,40,1658405252671
108.536875604942,36.909434864493186,40,1658405252711
108.54691930148732,36.86058280730043,42,1658405252753
108.73758903837012,36.94259189405536,39,1658405252793
108.73130575028534,36.965466831591776,41,1658405252834
108.9393109436308,37.343851325641914,40,1658405252874
109.04035565806566,37.479599071576104,41,1658405252916
108.95528983095267,37.47100117390671,40,1658405252956
108.69133300251417,37.04323972174528,41,1658405252998
107.89514371406972,35.60799691611365,40,1658405253039
107.69359728199305,35.21399332154842,40,1658405253080
107.52810810570696,34.95072150866646,41,1658405253121
107.42603968941523,34.75475096980978,41,1658405253162
107.45902922344442,34.833762868781896,41,1658405253203
107.75234802358949,35.2638706735724,40,1658405253244
107.83750083891618,35.48508595976834,40,1658405253285
107.87403931214027,35.63308948256666,41,1658405253326
107.949381433273,35.87239270739891,41,1658405253367
108.24601477523282,36.29018313531424,40,1658405253408
108.30391583853367,36.4264646389855,40,1658405253449
108.3116729273413,36.507976996893525,41,1658405253490
108.31776441219984,36.61919819865749,40,1658405253531
108.40355726257246,36.72538612157433,40,1658405253572
108.45933871195916,36.8296173823826,41,1658405253613
108.54354658894113,37.05764875829577,40,1658405253654
108.73187002313159,37.323846946001105,40,1658405253695
108.89240749711638,37.56987297028235,42,1658405253737
109.00247838315829,37.73614544711165,40,1658405253777
109.29412262119456,38.31339506426609,40,1658405253818
109.56762895945371,38.637079872737935,41,1658405253859
109.67237850907031,38.907243219676936,42,1658405253901
109.73626885696353,39.090405514757826,40,1658405253941
109.49549546578362,38.79281460943946,40,1658405253982
108.52072767296187,37.152363882016886,41,1658405254024
108.21040542403722,36.565511993074686,40,1658405254064
107.77723281503643,35.719370320219454,41,1658405254105
107.7401890901429,35.638483457781945,40,1658405254146
107.79551696122996,35.67244150346903,41,1658405254187
107.92180987582685,35.827193855999525,41,1658405254228
107.98061824662318,35.9768054873537,41,1658405254269
107.92186528769736,35.9806356953651,43,1658405254313
107.9786588826505,36.05975537118171,37,1658405254351
108.16181729246966,36.20552583524695,41,1658405254393
108.22331454791845,36.20767676834981,40,1658405254433
108.275903657159,36.294830926505576,41,1658405254474
108.33304414021472,36.51166579756593,40,1658405254515
108.39623959459118,36.63962364627863,41,1658405254557
108.51616103792583,36.768087395769584,40,1658405254597
108.58389402230529,36.964379664661756,41,1658405254639
108.39012060114953,37.05451033599219,40,1658405254679
108.44305265009342,37.1266422316334,41,1658405254721
108.52968152009441,37.30657542431105,40,1658405254761
108.66178214683327,37.418032759426005,41,1658405254802
108.9131471468441,37.83122550528899,40,1658405254843
109.00693461560684,37.99156839412303,41,1658405254884
108.90570054382385,37.86568178279718,40,1658405254925
108.55342685620883,37.28109854567618,41,1658405254966
108.26624519945995,36.59845563383437,41,1658405255008
107.82113977306267,35.632741115862174,40,1658405255048
107.67483703629705,35.3654285244215,41,1658405255090
107.65996151802727,35.269965592293616,40,1658405255130
107.74696232459394,35.358833040235616,42,1658405255172
107.9124635403781,35.66098527808104,39,1658405255212
108.10750908226777,35.96829601896123,41,1658405255253
108.30615079460347,36.28748776866796,40,1658405255294
108.40152035548346,36.4452840165085,41,1658405255335
108.35099134966896,36.43841429610225,40,1658405255376
108.26164610677796,36.33168997833772,41,1658405255417
108.46387594932486,36.51158449132491,40,1658405255458
108.56305186238035,36.639008244089666,41,1658405255499
108.94989721717195,37.44874442080432,40,1658405255540
108.94989721717195,37.44874442080432,40,1658405255581
109.26212419709555,37.925493309530765,41,1658405255622
109.51389179514223,38.36181943334939,41,1658405255663
109.63301289143544,38.714822257963085,40,1658405255704
109.61049619246,38.844845967514786,41,1658405255745
109.77900275994602,39.22017277469222,40,1658405255786
109.80196775415163,39.33901714326307,41,1658405255828
109.81208066907936,39.36977334981477,40,1658405255869
109.71886264127977,39.197374732228305,40,1658405255909
109.21434245927628,38.35684985397339,40,1658405255950
108.31699765876607,36.573622803520124,41,1658405255991
108.05547956333771,36.122682040666284,41,1658405256033
107.75612443859757,35.4971152438553,41,1658405256074
107.7885784762326,35.466425309449725,39,1658405256114
107.7995741625623,35.57384267785566,41,1658405256155
107.89200083064225,35.7343052057184,40,1658405256196
107.99497251786613,35.920760819279245,41,1658405256237
108.29266036658942,36.35870423892644,41,1658405256278
108.36965522546433,36.45455861238632,41,1658405256320
108.45363930918342,36.6064498220002,40,1658405256361
108.58506828791116,36.865720800160695,40,1658405256401
108.78821347072841,37.183108059839334,40,1658405256441
108.83899028979977,37.354756751001595,41,1658405256483
108.96800252570051,37.56031053198617,41,1658405256524
109.03078206992694,37.73302881652376,40,1658405256564
109.13771737423173,37.97205433856373,41,1658405256606
109.24817262392088,38.14248108264613,40,1658405256647
109.33624519403452,38.3228835965101,42,1658405256689
109.43972617695124,38.492064731834034,40,1658405256730
109.49302507131802,38.673076891745666,40,1658405256770
109.45389845967668,38.63562382064768,40,1658405256811
108.90679351119707,37.726960499158146,40,1658405256852
108.64267065840204,37.15504416896554,42,1658405256894
108.4527644196599,36.7812323225875,40,1658405256934
108.3914824333533,36.523290825041485,40,1658405256975
108.41638465350388,36.54968273359974,41,1658405257016
108.55303174297347,36.74451754042368,40,1658405257057
108.66411726522017,36.92364817114931,41,1658405257099
108.7471012981431,37.11516412031218,41,1658405257140
108.81205431036074,37.22079704112273,40,1658405257180
108.81783699947158,37.273760700168054,40,1658405257221
108.86142845821996,37.32784397078453,42,1658405257263
108.91952860100525,37.409042597761015,40,1658405257303
108.9053423683315,37.49359525714668,40,1658405257343
109.01553331263506,37.72731561563659,41,1658405257385
109.0531959681025,37.83403475329408,41,1658405257427
109.12141720202675,37.915911028037506,40,1658405257467
109.18946512177234,38.17486205492006,41,1658405257508
109.26405459845415,38.2674191576674,40,1658405257549
109.33288863079389,38.397705124111845,41,1658405257590
109.43161422389471,38.57857218642242,40,1658405257631
109.43356150123537,38.73531271532936,42,1658405257673
109.07915228267933,38.183885529958715,39,1658405257713
108.73401505579847,37.570209412809504,41,1658405257754
108.5032482165741,36.983741592477024,41,1658405257795
108.37770667991572,36.6552603301582,41,1658405257837
108.46205401399345,36.47086642443949,41,1658405257878
108.54165576618209,36.56379213403117,40,1658405257919
108.63308944168739,36.72682034863037,40,1658405257959
108.74575626291266,36.9501890647983,41,1658405258001
108.87873551394568,37.164215546993454,40,1658405258041
108.99633228329787,37.438214741511345,40,1658405258082
108.9375533603577,37.49870776575887,41,1658405258123
109.06282693078214,37.65629354205934,40,1658405258164
109.0628053169923,37.74903394323528,40,1658405258205
109.12043635949453,37.90855785805163,43,1658405258249
109.20582619135587,38.040742458183665,38,1658405258287
109.31912624033447,38.196708542322206,41,1658405258329
109.36681513312521,38.34841441657828,39,1658405258369
109.42546564526418,38.51039237119135,41,1658405258410
109.57452693165021,38.75536040410178,41,1658405258451
109.62500327156954,38.89800095909869,40,1658405258492
109.6999570440338,39.072337293062006,42,1658405258534
109.75846728966195,39.18511812115823,40,1658405258575
109.2120889066664,38.28799501174071,40,1658405258615
108.65462806784251,37.41403266069007,40,1658405258656
108.32033226912375,36.71086840343675,41,1658405258697
108.0291535085006,36.18344446102891,41,1658405258739
107.89805893484368,35.76385724447107,40,1658405258779
107.89821079426713,35.806426919974726,40,1658405258819
108.03936704725112,35.958396819546756,41,1658405258861
108.16732280252796,36.18097198246844,41,1658405258902
108.57159941027652,36.61441606453441,40,1658405258943
108.58352979603694,36.68511347014494,40,1658405258984
108.65709484045539,36.766853116448395,40,1658405259025
108.65527301634643,36.90451445993568,40,1658405259066
108.72920846632564,36.964344300487866,41,1658405259107
108.7947285767126,37.10633234031848,41,1658405259148
108.74459797028408,37.18641606155356,40,1658405259189
108.80620637364689,37.3220464504889,40,1658405259230
108.83833468427997,37.442688557785345,42,1658405259272
108.88226785419761,37.52354985615282,40,1658405259312
109.02779963514945,37.79563629765792,41,1658405259354
109.10351324253236,37.884811845028025,40,1658405259394
109.15053502878493,38.01466463948163,40,1658405259435
109.3170184851819,38.222655526046964,41,1658405259476
108.77320188900586,37.21527744805131,40,1658405259517
108.40656618119397,36.46766304754104,41,1658405259558
108.15613591723582,35.925770012562886,41,1658405259600
108.00391767811334,35.602657537183916,41,1658405259641
107.87969381391224,35.370168473214996,40,1658405259681
107.83915507104132,35.36446149573136,41,1658405259722
107.94864753558033,35.579101800638675,40,1658405259763
108.03730042035329,35.83081465189551,41,1658405259804
108.24086289715933,36.17502814998554,41,1658405259846
108.26875081416239,36.276009169256774,40,1658405259886
108.35331511623838,36.37495504592811,41,1658405259927
108.4288613235642,36.50257411093062,41,1658405259968
108.50048615700172,36.64468074802193,41,1658405260009
108.54986621220058,36.81320401652063,41,1658405260050
108.59973608524956,36.93328897675132,40,1658405260091
108.64826027404416,37.00807487868809,41,1658405260132
108.73542106470325,37.1473085270239,41,1658405260174
108.78458975372081,37.33498563078178,40,1658405260214
108.95546704571836,37.498083771254514,40,1658405260255
109.0690119334298,37.60015284554571,41,1658405260297
109.10855202799337,37.78466579533586,40,1658405260337
109.0635652960255,37.736718183945115,40,1658405260378
108.38232656273061,36.540773620528626,41,1658405260420
108.04986510031455,35.878946505786935,40,1658405260460
107.78365236528236,35.390162127181625,41,1658405260502
107.27636718851727,34.808551627516536,40,1658405260542
107.28462228630627,34.8655876201432,40,1658405260583
107.44146981298883,35.00228829336124,40,1658405260624
107.54896401687165,35.226672867504625,40,1658405260665
107.69921279281363,35.43498987560928,41,1658405260706
107.75110711230002,35.618257127750894,39,1658405260746
107.96686553421802,35.795533365867385,41,1658405260788
108.02146741187107,35.86872804163335,40,1658405260828
108.110591481332,35.9561234523031,41,1658405260870
108.186616112982,36.09039091955528,40,1658405260911
108.21530252557847,36.22296557972916,41,1658405260952
108.45037583579654,36.536060874742454,41,1658405260994
108.5243703428963,36.70230246125621,40,1658405261034
108.60626451080816,36.81567206477235,41,1658405261075
108.65099333166768,36.955387997548236,43,1658405261118
108.81437194104177,37.166398145464605,39,1658405261158
108.84888492376103,37.28747541913552,40,1658405261198
108.90794228412796,37.37080836607763,42,1658405261240
108.77513963545869,37.21153240604179,40,1658405261280
108.04631613568768,35.94249564287176,41,1658405261321
107.75162389720163,35.32821227884817,40,1658405261362
107.57770044569031,35.058593679036846,40,1658405261402
107.55477401958711,34.94573738350279,41,1658405261444
107.59115710614208,35.07647316123053,41,1658405261485
107.71432583252766,35.24888259975781,41,1658405261527
107.82194427840187,35.42279899792745,40,1658405261568
107.82394702220705,35.48145390112778,40,1658405261608
107.8196349127744,35.54434088120618,41,1658405261649
107.88931348004667,35.59895758358804,42,1658405261691
107.93306199312372,35.64693581757509,39,1658405261730
107.93875014207998,35.757431848716855,42,1658405261772
108.10848211379204,35.981038952536906,40,1658405261813
108.26967172878312,36.167074207902736,41,1658405261854
108.35556807068815,36.29841361225492,40,1658405261894
108.39275738246221,36.38509185525038,41,1658405261936
108.44213958479821,36.47027132713332,40,1658405261977
108.60126239656307,36.788518473103316,40,1658405262017
108.64475931142681,36.88659855645881,41,1658405262059
108.70899158038782,36.958416876112764,40,1658405262100
108.28021641629391,36.33943739256951,40,1658405262141
107.82048817053612,35.621845920547216,41,1658405262182
107.47536799359193,35.004003001976294,41,1658405262223
107.28539633702212,34.616949011647876,40,1658405262264
107.15332431583238,34.35955455053661,41,1658405262305
107.07836425658331,34.321541117129854,40,1658405262346
107.23398844479459,34.456365533740616,41,1658405262387
107.37188324674258,34.67645692314608,40,1658405262428
107.44616471030338,34.85057151681381,41,1658405262469
107.57468641964965,35.007929617061365,41,1658405262510
107.62835718038991,35.06816580608723,40,1658405262551
107.64592899249493,35.12746589528121,42,1658405262593
107.71350630943624,35.18774200146455,40,1658405262633
107.80436464036882,35.31483892185565,40,1658405262674
107.8927354170329,35.602315153630265,41,1658405262715
108.04569430078203,35.72765136971745,40,1658405262756
108.12361805178034,35.863128417326585,41,1658405262797
108.21372861272431,35.981744285755745,41,1658405262838
108.21832387874139,36.08753363639953,40,1658405262879
108.21517777799932,36.2388130829523,41,1658405262920
108.30753895805935,36.35632324071457,41,1658405262961
108.329301751836,36.454057525775426,40,1658405263002
108.18788307102454,36.20384946094815,41,1658405263043
107.4389387235833,34.90764810712589,42,1658405263086
107.11501853346874,34.39810289928051,39,1658405263125
106.89723564273322,34.076560494855485,41,1658405263167
106.87087307435849,33.9372246911065,40,1658405263207
106.9688622245344,34.03834932414478,40,1658405263247
107.1179512202466,34.260007611806735,42,1658405263290
107.23190487172246,34.48427695656139,40,1658405263330
107.34531112396047,34.60579344374039,40,1658405263371
107.39225644168249,34.67165339429519,44,1658405263416
107.3843665806591,34.73598324441298,37,1658405263453
107.43604541974838,34.85886117223597,40,1658405263494
107.54623495783312,34.93989248469955,40,1658405263535
107.69944933665266,35.2058318798137,42,1658405263577
107.8008129341747,35.32983414422292,40,1658405263617
107.86871386828113,35.45735736584358,40,1658405263658
107.98449165749759,35.61457821828449,41,1658405263699
108.11021486901245,35.73024168914663,42,1658405263742
108.18625160662282,35.91958274554734,38,1658405263780
108.29726779621274,36.054331840071995,42,1658405263823
108.37746727447058,36.17619522847485,40,1658405263863
108.34722100035697,36.16641764254568,40,1658405263904
107.78283003416158,35.26435768825166,41,1658405263945
107.35642813743794,34.6603488957055,40,1658405263986
107.09537612436463,34.20453175885679,41,1658405264027
106.91159088785133,33.954577303936034,41,1658405264069
106.88384590500402,33.90810154039167,40,1658405264109
107.02626575087135,34.112111302947866,42,1658405264151
107.19780143098615,34.38450998427325,39,1658405264191
107.33273348216801,34.54675211709342,41,1658405264232
107.3491036068919,34.64660616815428,41,1658405264273
107.38639162830844,34.73094642561739,40,1658405264314
107.43300330798814,34.81572770307492,41,1658405264355
107.56907701928549,34.910404220699334,40,1658405264396
107.61635258818865,35.042009734907396,41,1658405264438
107.65818606116045,35.140476869882015,40,1658405264478
107.88201718611651,35.45044021457429,41,1658405264519
107.93970177649481,35.52466710955449,40,1658405264560
107.98519626569055,35.59751754994,42,1658405264602
108.01845445159972,35.635796357479386,39,1658405264641
108.05353686036204,35.690749654537846,42,1658405264684
108.16311691364842,35.822683534776424,40,1658405264724
108.20010720867026,35.967111507990545,41,1658405264765
108.27182284443984,35.98796800932279,40,1658405264806
107.6673827097548,35.048231214770034,40,1658405264847
107.3278757628915,34.47524686471297,43,1658405264891
107.09701201155679,34.11374596319546,38,1658405264929
106.96185680189421,33.928816608446944,41,1658405264971
107.00814512652784,33.997495380887955,40,1658405265011
107.04126506827708,34.12511524509035,41,1658405265052
107.17757832404766,34.303929181277546,41,1658405265094
107.29267276484791,34.450738028065665,40,1658405265134
107.33903264692765,34.53714339799471,40,1658405265175
107.4027021679438,34.60866568617598,41,1658405265217
107.46536220730843,34.697155367467474,40,1658405265257
107.52864415482281,34.816491674488795,40,1658405265298
107.6839339633953,34.979119314674556,41,1658405265339
107.89327742435239,35.264480136467434,40,1658405265380
108.00980851077395,35.46230667313077,41,1658405265421
108.1103507995407,35.570315527398755,40,1658405265462
108.15955777962154,35.658786343305025,41,1658405265504
108.19385304969421,35.719085858744066,40,1658405265544
108.16199497111472,35.89139972645672,41,1658405265585
108.27754779380643,35.98995042724262,40,1658405265626
108.31112662303485,36.10393281819337,40,1658405265667
107.99816923299056,35.614233048686884,41,1658405265708
107.62203733841534,34.96941503256305,40,1658405265749
107.2570806287273,34.421582586342645,41,1658405265790
107.05201324382091,34.040407242717635,41,1658405265831
106.9864793082719,33.90465821998695,41,1658405265872
106.9655653630303,33.85927558733816,40,1658405265913
107.08175127749905,34.071754449995204,40,1658405265954
107.23163986814438,34.26432757319285,40,1658405265994
107.35093830025954,34.409060196874805,41,1658405266036
107.42146565706463,34.52689725750235,41,1658405266078
107.3649444555441,34.4842700671844,40,1658405266118
107.43043174613382,34.5548238489558,40,1658405266159
107.48408317314579,34.65675973264608,41,1658405266200
107.5468931458854,34.7735920687741,40,1658405266241
107.63913012803613,34.876642697512764,40,1658405266282
107.83105450337246,35.1416786725098,40,1658405266323
107.86509984662143,35.24222431758228,40,1658405266364
107.98908273469851,35.370436926569305,42,1658405266406
108.09983521265474,35.47323564956117,39,1658405266445
108.12403425999321,35.550335076151775,41,1658405266487
108.19257650989988,35.71020477086434,40,1658405266528
108.2854157782429,35.74010241669495,40,1658405266569
107.96284747846352,35.29645989529651,40,1658405266610
107.7284005476759,34.814899017888465,40,1658405266650
107.37592583214791,34.19009701109371,41,1658405266692
107.07368542210571,33.81297934781494,40,1658405266733
106.86320160348953,33.59651865210524,41,1658405266774
106.88714083164325,33.59162148935766,40,1658405266815
106.99711642474415,33.78372930297199,45,1658405266860
107.17966448270408,33.98397827052536,37,1658405266898
107.13402637370655,34.06822340577541,40,1658405266938
107.22178487551491,34.182317236366174,41,1658405266979
107.22178487551491,34.182317236366174,40,1658405267020
107.35761505799576,34.359268647351556,40,1658405267061
107.42221061902382,34.47066822534647,41,1658405267102
107.51047098937039,34.61575535852771,42,1658405267144
107.7176804063094,34.930016251995205,39,1658405267184
107.75303831527458,35.04529940798626,41,1658405267225
107.87974248732604,35.146587885863404,40,1658405267266
107.90745785717888,35.28329498926021,41,1658405267308
108.00852068799804,35.45973151147537,40,1658405267348
108.1358145719941,35.53334336419531,39,1658405267388
108.18419883404897,35.66674711054641,41,1658405267429
108.38061127893957,35.84321505150064,41,1658405267471
108.2416472264631,35.65070695033234,41,1658405267512
107.89604628986109,35.10162360642936,40,1658405267553
107.4805147927301,34.46460545507659,41,1658405267595
107.16213839322529,34.01787212058728,40,1658405267635
106.99651894214367,33.73833242736418,41,1658405267676
106.71452944093869,33.52927067368409,40,1658405267717
106.85014106982226,33.74367669069063,41,1658405267758
107.02871717240362,34.00817341478384,41,1658405267800
107.14499973008196,34.14472231111847,41,1658405267841
107.25370899992242,34.276806030318475,40,1658405267881
107.2545704264353,34.29717988955229,41,1658405267922
107.30531676850308,34.34902046966773,41,1658405267963
107.51332910077411,34.533400884803285,40,1658405268004
107.73472252559742,34.78974556020568,40,1658405268045
107.82497447104197,34.96452055178703,41,1658405268086
107.92314679113554,35.102784229281454,40,1658405268127
108.01628990751982,35.23660725425867,41,1658405268169
108.11146910733623,35.36203891774383,40,1658405268209
108.1337524282452,35.47412337419568,41,1658405268250
108.13938520263116,35.56632968822948,40,1658405268291
108.21243450180725,35.66119938141346,40,1658405268331
108.25385825578951,35.77098082989839,42,1658405268374
108.30138872906304,35.92479037637265,41,1658405268416
108.22515257592698,35.69626203378916,38,1658405268455
107.83573988912747,35.12423107823317,41,1658405268496
107.34499356130152,34.459298551311704,40,1658405268537
107.01326363140424,34.05804307322404,40,1658405268577
106.73792348040206,33.56803916406154,41,1658405268619
106.75289179351455,33.57266289658637,42,1658405268661
106.875204687066,33.77297927754056,40,1658405268701
107.0629215991139,34.0410353843669,40,1658405268742
107.50100347394027,34.36163833774067,40,1658405268783
107.53180835262094,34.41118324581458,41,1658405268824
107.51979145202074,34.49512820998657,41,1658405268865
107.58080416217712,34.553759343215745,41,1658405268907
107.67273427462851,34.61280719599156,43,1658405268951
107.76352287853905,34.83927206910756,36,1658405268987
107.88168953849168,34.93312652162964,41,1658405269029
107.78203705391633,34.99722354252951,41,1658405269070
107.91705430696982,35.19002381388108,41,1658405269111
107.97441109272324,35.30144883257444,40,1658405269152
108.00631816346402,35.38658736598346,41,1658405269193
108.05381377288745,35.476500791487126,40,1658405269234
108.22799198092451,35.68196133429661,40,1658405269275
108.3212421788192,35.81828226640752,41,1658405269316
108.37356082067566,35.883133964946865,41,1658405269357
108.3121579612669,35.75061488114073,40,1658405269397
107.60776872546325,34.687839749974344,42,1658405269440
107.29152134461782,34.20120381972797,40,1658405269480
107.0722760249833,33.86623598352065,40,1658405269521
106.94929716153365,33.71858608313568,41,1658405269563
106.99536807599156,33.699140697322186,40,1658405269603
107.08787607892623,33.80767606930688,40,1658405269644
107.42733928821389,34.29080629754921,41,1658405269685
107.4671585021203,34.39396258432808,41,1658405269726
107.51290924968481,34.45246723549607,40,1658405269767
107.55707566169258,34.47254191306439,41,1658405269808
107.653985031145,34.63922504978691,40,1658405269849
107.73153525489215,34.718724779245775,41,1658405269890
107.82918141009259,34.85930368607828,40,1658405269931
107.90126328261317,35.03026243324234,41,1658405269972
108.07716333623057,35.220709416198325,40,1658405270013
108.15655719421136,35.33186354971843,41,1658405270054
108.21775214449212,35.4286167991627,45,1658405270099
108.17312047310804,35.47474251878488,36,1658405270136
108.28046244863424,35.667756896743235,41,1658405270177
108.34497548289562,35.780931340650596,41,1658405270219
108.4030183989845,35.87283126927087,40,1658405270259
108.39386034019441,35.82498867715117,40,1658405270300
108.22896745459678,35.55697994730386,41,1658405270341
107.85602866041432,34.987951695681545,40,1658405270382
107.08460752558659,33.9778213117351,42,1658405270424
106.96412231940178,33.766247631127875,39,1658405270464
106.94185068024774,33.744812762245566,41,1658405270505
107.09203162537602,33.958588248022146,40,1658405270546
107.2615359225664,34.196634091850854,42,1658405270588
107.39069789618543,34.39558833013248,40,1658405270629
107.61386237170075,34.54259746222786,40,1658405270670
107.65003041325406,34.6179006057186,40,1658405270710
107.7614554547726,34.74495756592713,40,1658405270751
107.87000213560793,34.82396906817364,41,1658405270792
107.96698584815573,34.991958768623356,40,1658405270833
108.06670473630231,35.14291374417482,41,1658405270875
108.3151011483996,35.466426379892255,40,1658405270915
108.41156879085395,35.593780906758894,39,1658405270955
108.46578928243576,35.667844914477776,41,1658405270997
108.53798170844021,35.84037615744478,41,1658405271038
108.61470716264853,35.945303581810876,40,1658405271079
108.71785101316925,36.053201337489625,41,1658405271120
108.73267853621132,36.133563658195555,42,1658405271162
108.70798780770656,36.09329612924859,39,1658405271202
108.12912042387177,35.252317300846826,40,1658405271242
107.79985399162683,34.694033281935,41,1658405271284
107.50032959300154,34.281931098295495,41,1658405271325
107.34285487442162,34.06574447811318,41,1658405271366
107.31583247949709,33.997085919132275,41,1658405271407
107.4055948102083,34.28223854566628,40,1658405271448
107.54929387470486,34.54104420338456,40,1658405271488
107.68733461381646,34.68816068159676,41,1658405271530
107.74890529748762,34.74664175195714,41,1658405271571
107.77469821805255,34.822493657543,41,1658405271613
107.84016133029183,34.9046555543607,40,1658405271653
107.94092869985764,35.03606158925918,40,1658405271694
108.19442627493555,35.2650353586822,42,1658405271737
108.38379789926444,35.57960068904456,39,1658405271776
108.39288125721589,35.677887382650724,40,1658405271817
108.47622804304802,35.75269186232641,41,1658405271858
108.50570512157981,35.85461837368663,40,1658405271899
108.54198048811224,35.915941730122,40,1658405271940
108.55425718246516,36.04653411619921,41,1658405271981
108.62206157644619,36.174126152437886,41,1658405272022
108.64671907586842,36.2326499130877,41,1658405272063
108.63552964534392,36.191005669366334,40,1658405272104
108.06672549116945,35.307971343396744,40,1658405272145
107.70419883269255,34.73246371599916,41,1658405272186
107.44155806059405,34.38613666803546,40,1658405272227
107.2080553309629,34.14730960551723,42,1658405272269
107.18372440763159,34.09347124968575,39,1658405272309
107.43221351894744,34.428984469257266,40,1658405272349
107.60094270575621,34.670705770534965,41,1658405272391
107.6948115242937,34.83318050265474,42,1658405272433
107.69180620243202,34.86816092643518,40,1658405272473
107.90784338221965,35.00233260218147,41,1658405272515
107.93507236516575,35.037874169596655,41,1658405272556
107.97452221011889,35.09965934410947,39,1658405272595
108.01392474989854,35.175346342899246,42,1658405272638
108.16339217275623,35.45869700922723,40,1658405272678
108.29526909880462,35.604808278590596,41,1658405272719
108.35891327939851,35.74589514148394,40,1658405272760
108.24278334885025,35.73764420903957,41,1658405272801
108.40878734804562,36.01576617594512,42,1658405272843
108.49249388377899,36.10133935305378,39,1658405272883
108.53510110940385,36.219200784882965,42,1658405272926
108.55804915675702,36.26634155447487,38,1658405272965
108.52531540534909,36.24648119186218,41,1658405273006
108.15078082986372,35.504926301825094,40,1658405273047
107.77687588537191,34.91872067870764,41,1658405273088
107.43764116985466,34.46896792038346,40,1658405273128
107.27381947575401,34.2416896682186,42,1658405273171
107.27095773334213,34.19801928332584,40,1658405273211
107.36234899610832,34.35364875618016,40,1658405273252
107.4856065068833,34.50696562979201,41,1658405273293
107.65559335312554,34.64464951885443,41,1658405273334
107.7580998691372,34.767422373522386,41,1658405273376
107.79034554800688,34.86905561799832,40,1658405273416
107.75821845166598,34.87965892376126,41,1658405273457
107.88954737726459,34.99122719755926,41,1658405273498
107.99435987950261,35.104177680826915,41,1658405273539
107.93134829696629,35.3100726928303,40,1658405273580
107.96019682587223,35.3555830115298,40,1658405273620
107.99104305830446,35.39467746148724,41,1658405273662
108.05730640025888,35.50117939212296,41,1658405273704
108.08401754982765,35.62229835111224,39,1658405273744
108.16055512615077,35.705806054777156,41,1658405273785
108.23989176862517,35.868240421924696,40,1658405273826
108.35139542208128,35.962438616147494,41,1658405273867
108.35457433583883,36.08270100099755,41,1658405273908
108.00776466414601,35.42465865778783,40,1658405273949
107.62019908355359,34.88344918192451,40,1658405273990
107.36653801883949,34.48336256836093,40,1658405274031
107.1644211868446,34.22137522977209,41,1658405274073
107.08417428540889,34.13521581818681,40,1658405274113
107.30756608516282,34.34655250202476,40,1658405274154
107.4946725161571,34.65031033289617,41,1658405274195
107.6470983761784,34.8634893393347,40,1658405274236
107.74684720217056,34.977978195497336,41,1658405274278
107.95304227791576,35.2249726650272,39,1658405274317
108.04149318633245,35.36982751375938,41,1658405274359
108.17771974957844,35.50876673734859,40,1658405274400
108.30996963828807,35.68709410924894,41,1658405274442
108.51516474461954,36.04393773558807,40,1658405274482
108.63898283009212,36.18628425222958,42,1658405274524
108.71335115199395,36.32708850901096,39,1658405274564
108.79321042465568,36.48548470201973,42,1658405274606
108.89019288255935,36.60068300506861,40,1658405274646
108.77753576244663,36.70525507217902,40,1658405274687
108.80058457841517,36.79658796700994,42,1658405274729
108.7893171632752,36.81423980710772,40,1658405274769
108.76478027178439,36.792866144568,40,1658405274810
108.32119015516628,36.03451242321048,41,1658405274851
107.9916316746394,35.441168957573375,42,1658405274893
107.80031801636545,35.09691944041215,40,1658405274933
107.70622417976108,34.913677386400906,40,1658405274973
107.76682861749873,35.05783936611574,40,1658405275014
107.92375738714168,35.25896972887789,42,1658405275056
108.05589332431612,35.47981256354763,40,1658405275097
108.15903439664771,35.63115522822102,41,1658405275139
108.22904724047447,35.7338113613399,40,1658405275179
108.41987759996192,35.93313815743218,41,1658405275220
108.5087271325832,36.080883443791606,41,1658405275262
108.58737322057544,36.18360276883087,41,1658405275303
108.69755843454584,36.32320367619837,40,1658405275343
108.87973706149847,36.706611867412725,40,1658405275384
108.98903833080504,36.78699388148163,41,1658405275425
109.00857142241932,36.96416161889337,42,1658405275467
109.1371653090738,37.13858476965883,39,1658405275507
109.15508378751451,37.206001428017196,40,1658405275548
109.1918183551872,37.266882848377094,41,1658405275589
109.28598211820025,37.39921620916797,40,1658405275629
109.36265549653524,37.53110717673829,42,1658405275672
109.27063386185733,37.45614278221396,40,1658405275712
109.09232117149048,37.037355189152436,40,1658405275753
108.30781420156882,35.71113601872793,42,1658405275795
108.08825401676046,35.3431364124144,39,1658405275835
107.96707748160492,35.18622697465593,41,1658405275876
108.04498317895104,35.28364510472308,41,1658405275917
108.2306043529644,35.535444745840046,41,1658405275958
108.23413345284331,35.611515391580014,41,1658405275999
108.27695197818736,35.694048321357336,41,1658405276041
108.33563899199578,35.788403870824745,39,1658405276081
108.31135565833688,35.8527904398763,40,1658405276122
108.31018354359816,35.88164106711902,41,1658405276163
108.37071361586021,35.943384862620434,41,1658405276204
108.51311530126111,36.171642802589226,40,1658405276245
108.58881577353628,36.29608754884677,41,1658405276286
108.66994505879057,36.40252229177988,41,1658405276328
108.73546671137274,36.515859335040005,40,1658405276369
108.84327886854965,36.72949074811367,39,1658405276409
108.89369021484663,36.82329466334675,41,1658405276450
108.91202311278454,36.83665280920605,40,1658405276491
108.8605745351577,36.861607794078886,41,1658405276532
108.8254496882243,36.93178726749037,40,1658405276573
108.31398778593677,36.069792237005245,41,1658405276614
107.78198157693993,35.28191817700717,42,1658405276656
107.42076116009423,34.72230034143466,39,1658405276696
107.1925589940493,34.37411819181833,40,1658405276737
106.95131543986878,34.12348631251347,40,1658405276778
106.88689571722784,33.994626030256285,41,1658405276819
106.99025529534458,34.15998022411822,41,1658405276860
107.19858987213206,34.3805630176536,41,1658405276902
107.2741103514523,34.52133308077314,39,1658405276942
107.41328531979457,34.63568090613306,41,1658405276983
107.42884771745628,34.72975247805321,40,1658405277024
107.68164966488109,34.939419324317846,41,1658405277065
107.84195704016815,35.1780797678162,41,1658405277107
107.92478585969849,35.30615854896175,39,1658405277147
108.04094852187995,35.51571764685249,40,1658405277188
108.17274528633561,35.6962860574496,40,1658405277229
108.24866606871001,35.8571712058725,41,1658405277270
108.23860360675627,35.98500123530797,40,1658405277311
108.29015401944605,36.049103202073084,41,1658405277353
108.38848705403842,36.188309246090284,41,1658405277394
108.43823261863372,36.34271546159074,40,1658405277434
108.27437693893398,36.08848859254852,41,1658405277475
107.88390510013551,35.51464457905841,42,1658405277518
107.37919553162192,34.802976788269206,39,1658405277558
107.01700854026149,34.261776077014986,40,1658405277598
106.78451718103008,33.88512126066962,40,1658405277639
106.60022698785832,33.64790294215701,41,1658405277680
106.65295293944831,33.733713502950714,41,1658405277721
106.82671833291556,33.96720217173159,41,1658405277763
107.03016451844451,34.18868959896625,40,1658405277804
107.12780169310508,34.365636097301625,40,1658405277844
107.33038024231047,34.532610477791984,41,1658405277886
107.34528625928567,34.601842195483094,40,1658405277926
107.37643798130864,34.6268790578283,41,1658405277967
107.44711371064352,34.73411521134157,40,1658405278008
107.61970110068245,35.00253573226468,41,1658405278049
107.66824383379668,35.09596997141893,42,1658405278091
107.7562858940147,35.261997021647346,39,1658405278131
107.89506379153755,35.38532685261593,41,1658405278173
108.0070344907121,35.59534690485853,40,1658405278213
108.00919459877701,35.6475844953368,41,1658405278254
108.03662566862363,35.741184783590874,40,1658405278295
108.12725850201173,35.90751314309492,40,1658405278336
108.10103715605112,35.91101082785882,42,1658405278378
107.85676680219535,35.60676897960974,42,1658405278420
107.414833763032,34.92762525450204,38,1658405278459
106.94442498807751,34.29489229553599,42,1658405278501
106.5740666511769,33.86664957860845,40,1658405278541
106.29538500555026,33.45750538623851,40,1658405278582
106.26796575784306,33.51389189958818,41,1658405278623
106.49396643596134,33.72565823439148,40,1658405278664
106.73087131853475,33.95047138019364,41,1658405278705
106.87230030845262,34.260284295552935,40,1658405278746
106.90984512298769,34.24588498629932,41,1658405278787
106.97373086599748,34.368942448215584,40,1658405278828
106.97572963224138,34.393855846514995,41,1658405278869
107.0300413876609,34.44623659361524,40,1658405278910
106.92824923622686,34.609958086082585,40,1658405278951
107.03316491633626,34.73482751882459,41,1658405278992
107.11138231681377,34.86581656466632,41,1658405279034
107.1694101680165,34.96523236084568,41,1658405279076
107.28785892183612,35.19637838487115,39,1658405279115
107.34011580230498,35.24150903195113,40,1658405279156
107.51411355588141,35.36373726517839,41,1658405279197
107.5640039030286,35.53020539656251,41,1658405279239
107.65385205852527,35.63171321761507,40,1658405279280
107.65298756627232,35.73619891525856,40,1658405279320
107.46169748140687,35.43509882396984,41,1658405279361
106.99873942368833,34.84746199576961,41,1658405279403
106.58901770513228,34.24071306170272,40,1658405279443
106.17941646904325,33.66580826478683,40,1658405279484
106.09768810745129,33.58053972127616,40,1658405279525
106.12373009896908,33.66031886231779,41,1658405279567
106.21595203115373,33.82495360647556,41,1658405279608
106.30888707259356,33.9961681004866,40,1658405279648
106.45466795366036,34.153158078501434,40,1658405279689
106.45155686393468,34.227554038019235,41,1658405279730
106.52510751487125,34.27824517514803,40,1658405279771
106.617980311716,34.476174073257994,40,1658405279811
106.7159648054664,34.55509670289524,41,1658405279853
106.79946642829782,34.67748520858446,41,1658405279894
106.85716126878032,34.82219490862642,40,1658405279935
106.87496555967715,34.97562035048085,41,1658405279976
106.99387248481133,35.06950703180082,40,1658405280017
107.01829648002445,35.137691300221434,40,1658405280058
107.03211284629538,35.23131342832652,41,1658405280100
107.10002633972942,35.25927354694387,40,1658405280140
107.17972949158559,35.43629026939568,40,1658405280181
107.22032262769159,35.499145119421165,41,1658405280222
107.19098427347552,35.475029736363425,41,1658405280264
106.8410284569585,35.03321304209627,41,1658405280305
106.05812005771907,33.876654533075545,40,1658405280346
105.78971478681626,33.56127064176642,40,1658405280386
105.59196416620819,33.36144178155871,40,1658405280427
105.52067429937955,33.29640475699192,40,1658405280468
105.76846981963502,33.57804804108267,41,1658405280509
105.94879093870173,33.76024505022086,41,1658405280551
106.03035687405327,33.93289021129855,40,1658405280591
106.05006076004582,34.01400016184433,41,1658405280633
106.06074113088613,34.02937931959487,40,1658405280673
106.12546037304571,34.080066567967705,40,1658405280714
106.26583551268425,34.27708461830518,41,1658405280756
106.09035757970582,34.30313033821975,40,1658405280796
106.21816418728622,34.42355324463531,41,1658405280838
106.42278919922234,34.67143284292331,40,1658405280878
106.4865233598477,34.85705024935077,41,1658405280919
106.56963900664459,34.97423450690348,43,1658405280962
106.59622495458865,35.03868671529793,37,1658405281000
106.63901992144434,35.1321292183666,40,1658405281041
107.0007897473323,35.438157270771214,41,1658405281082
107.04008155289148,35.531379326686135,41,1658405281124
107.12385536976876,35.64181030706576,40,1658405281165
107.07627762489204,35.62358388864214,41,1658405281206
106.3310835402479,34.609381847729445,41,1658405281248
105.89280224548759,34.00890510284564,40,1658405281289
105.6152557222627,33.65797101479176,40,1658405281329
105.43163914418074,33.43586300421206,40,1658405281370
105.36708446488677,33.40105510173128,41,1658405281411
105.56148929591808,33.621280325993204,41,1658405281452
105.72805800945878,33.83546208068382,40,1658405281492
105.80745380094805,33.98792360228216,42,1658405281534
105.75412117631913,34.031196511865154,40,1658405281575
105.80162700973659,34.09698255737182,41,1658405281616
105.86793636186815,34.2152360332921,41,1658405281658
105.93415510291607,34.24901383457607,40,1658405281698
105.99878414395562,34.35272285930527,41,1658405281739
106.16404683390192,34.667050142804065,40,1658405281780
106.28433360589634,34.80054138700975,41,1658405281821
106.3995950815505,34.933632506145344,40,1658405281862
106.44812164670901,35.081670366690894,41,1658405281903
106.53629768224488,35.19257718214655,40,1658405281944
106.54535517553626,35.25822246788912,40,1658405281984
106.5664144051874,35.3367428811185,41,1658405282026
106.6451900189187,35.43759635663356,41,1658405282068
106.65213932539206,35.53776749537677,40,1658405282108
106.680291381286,35.42152599853985,41,1658405282149
106.20229550079159,34.817573257380474,41,1658405282191
105.75410428541704,34.16230433453859,40,1658405282231
105.21922620631665,33.479161437372625,40,1658405282272
105.07708131471247,33.37932412535319,41,1658405282313
105.0490501319207,33.370133959753986,40,1658405282354
105.08407030727795,33.49238984159126,41,1658405282396
105.21326949500093,33.73385422830477,40,1658405282436
105.29084918830625,33.877391541793116,40,1658405282477
105.34187534350127,33.89045969743465,40,1658405282518
105.35502769135428,33.91845306325752,40,1658405282559
105.3992993364763,33.983533728676285,41,1658405282600
105.41823258404622,34.09613012842764,42,1658405282643
105.48273191861011,34.22081255560912,39,1658405282682
105.55894740199125,34.36802477819596,42,1658405282725
105.629653449295,34.4681465188968,38,1658405282763
105.8086294636172,34.68284618712573,41,1658405282805
105.8086294636172,34.68284618712573,40,1658405282846
105.84736819555576,34.78195186381763,41,1658405282888
105.98690010949991,34.85589386185015,40,1658405282928
106.04269359092473,34.97198992108429,40,1658405282969
106.10100455395161,35.077886553101976,41,1658405283011
106.20562027168677,35.24890121093183,39,1658405283051
106.02616051640075,35.08445745098465,42,1658405283093
105.6367586846473,34.52821650044517,39,1658405283132
104.85758909126866,33.47896321014282,41,1658405283174
104.6187444622717,33.200450046264145,40,1658405283214
104.52315554719576,33.09985900695055,41,1658405283256
104.53691175327646,33.13421263510357,41,1658405283298
104.69315525591486,33.3377565928682,39,1658405283338
104.95464356812408,33.711436488427736,41,1658405283379
104.92546681038783,33.73870954055858,42,1658405283422
105.00156674408834,33.75431379561779,39,1658405283461
105.07769163876605,33.89816196405457,41,1658405283503
105.07769163876605,33.89816196405457,40,1658405283543
105.23083010991496,34.11030642543709,41,1658405283585
105.30789434925873,34.19908544858454,40,1658405283625
105.35635320160793,34.330844375134966,41,1658405283666
105.43652845743321,34.5291880914042,41,1658405283708
105.53417031768129,34.60931289419461,40,1658405283748
105.60983414044256,34.7149902102411,41,1658405283789
105.6443308626337,34.77992324823669,40,1658405283830
105.64189932822956,34.825389968847034,42,1658405283872
105.67264073751107,34.95701287673151,39,1658405283911
105.67276748133088,34.98504712814832,41,1658405283953
105.65088287719897,34.98665645856766,42,1658405283995
105.4479391576902,34.714444658644396,40,1658405284035
104.49457537651534,33.52228876401442,40,1658405284076
104.27019791876904,33.15442813944917,41,1658405284117
104.02367560298882,32.928365263157104,40,1658405284158
103.87841970982316,32.77301300848345,42,1658405284200
103.84877393250804,32.72166632235212,41,1658405284241
104.0895902016627,33.13976765260943,39,1658405284281
104.14387342477727,33.15413412176256,41,1658405284322
104.1023713172462,33.11482049032674,41,1658405284363
104.061913304288,33.11187915701036,40,1658405284404
104.06602634915623,33.15814330148673,41,1658405284445
104.12210962423336,33.22782649913529,40,1658405284486
104.09461919174328,33.268813246339526,41,1658405284527
104.12978685391926,33.31648659303932,40,1658405284568
104.21655241469506,33.39521553451429,40,1658405284609
104.2583095042487,33.51343130481534,41,1658405284651
104.2671777470062,33.52659363542682,40,1658405284691
104.28334926426305,33.59452542433668,40,1658405284732
104.28531293810823,33.62610714110702,41,1658405284774
104.14931233764224,33.56103891290275,39,1658405284814
104.20393206956072,33.6238332467062,41,1658405284855
104.26773230449794,33.73011566466763,41,1658405284896
104.25565560518066,33.716549276942715,41,1658405284937
103.60758945477642,32.87214545001887,40,1658405284978
103.10950574579579,32.36094938185958,41,1658405285019
102.84512055842384,32.028712186840586,41,1658405285061
102.62732138545817,31.79708336961628,41,1658405285102
102.50757188806188,31.701121895402494,39,1658405285142
102.60484763397159,31.850075048628803,41,1658405285184
102.81309458844146,32.03177545002139,40,1658405285224
102.98290733414825,32.1932204930113,40,1658405285265
103.07148348454172,32.31628807667971,41,1658405285307
103.09002732818561,32.359603945058254,40,1658405285347
103.14565140585262,32.44321839465858,40,1658405285388
103.2932348586823,32.57447114111083,41,1658405285429
103.45137102365948,32.74806462133845,42,1658405285471
103.5579173557037,32.909249240122186,39,1658405285511
103.71223129929058,33.126973872221726,41,1658405285553
103.9133079328916,33.31607825424318,41,1658405285594
103.98034755848948,33.40145321017806,40,1658405285634
104.07910388257454,33.499069426663944,40,1658405285675
104.13621903198975,33.58534280170037,40,1658405285716
104.24626982778688,33.74811012461388,41,1658405285757
104.31671032252086,33.88574970885896,41,1658405285798
104.34146456145504,33.99262691961041,41,1658405285840
104.30500836101692,34.04588899037872,40,1658405285880
104.0437072440987,33.69164200635904,41,1658405285921
103.56930530553092,33.112708150774125,40,1658405285962
103.1477589548366,32.56892897346915,42,1658405286005
102.59026012063845,31.966943332287308,39,1658405286044
102.43548365551243,31.850474447523233,40,1658405286085
102.54444990293797,31.878209611651016,41,1658405286127
102.7139136947875,32.05550767327316,40,1658405286167
103.07762234849599,32.45676075271209,42,1658405286209
103.07762234849599,32.45676075271209,39,1658405286249
103.23799648814912,32.6450793947471,41,1658405286290
103.24615150737708,32.686953443922285,42,1658405286332
103.38198730896852,32.77966339304981,40,1658405286372
103.67912675846867,33.086136049426436,40,1658405286413
103.74135439860629,33.23378787291661,41,1658405286455
103.84904147216287,33.368959631551,40,1658405286495
103.99258313882956,33.512492049521455,42,1658405286537
104.08166343409277,33.602041410784935,40,1658405286577
104.22095989607749,33.81748396749335,40,1658405286618
104.20235140604245,33.86015280812361,40,1658405286659
104.26915926528306,33.96152571627934,41,1658405286700
104.32121822460925,33.99021022624601,40,1658405286740
104.37513750663265,34.08468993167058,41,1658405286782
104.58046533363768,34.33358493105122,42,1658405286824
104.60491368793782,34.37111827237093,40,1658405286864
104.3674196983618,34.11925195689581,42,1658405286906
103.5972394978819,33.062951441745895,39,1658405286946
103.28890390991899,32.673127302709254,41,1658405286987
103.10554073063429,32.40988474595018,40,1658405287028
102.99847630682382,32.29671471115827,42,1658405287070
102.96384215599147,32.35539413169881,40,1658405287110
103.33070133831882,32.6981157100351,41,1658405287151
103.39117017343114,32.84233518795657,40,1658405287191
103.46544008443146,32.94459547089024,41,1658405287233
103.53133646668863,32.97749010828007,40,1658405287274
103.57525375620133,33.03157737494105,41,1658405287315
103.63023556284293,33.21632294063843,41,1658405287356
103.76590885308156,33.31266802810771,41,1658405287397
103.84257974823834,33.43362338072003,41,1658405287439
104.116813732671,33.640658275641634,40,1658405287480
104.39923152702545,33.96519054874887,40,1658405287520
104.51416394714056,34.09620545616181,40,1658405287561
104.51673391830951,34.21000150652145,42,1658405287603
104.734704022308,34.39142043503774,40,1658405287643
104.76808772350296,34.49959852513298,40,1658405287684
104.64279814042737,34.51004957820675,40,1658405287725
104.75703444595183,34.65472219953567,41,1658405287766
104.82039073283158,34.76186650571161,41,1658405287808
104.75656979151745,34.66622979668087,39,1658405287847
104.33240433100474,34.11913272186997,41,1658405287889
103.84286684135384,33.48733503733568,40,1658405287930
103.5159984417997,33.03733267395528,41,1658405287971
103.19510064959377,32.58325042596653,41,1658405288012
103.19659383931707,32.62157075634046,40,1658405288053
103.37951875611719,32.81756216276774,41,1658405288094
103.57143480739785,33.02633310467389,41,1658405288136
103.71481131371695,33.23575934420866,40,1658405288176
103.86237790853659,33.392576281568424,41,1658405288218
104.11793486341605,33.551150749268345,41,1658405288259
104.12920172888619,33.56382443880972,41,1658405288300
104.17927918994201,33.67951031316963,39,1658405288340
104.40993115021166,33.86864559457475,41,1658405288381
104.43705065358148,33.974485870427294,40,1658405288422
104.56242874841575,34.08042514818081,40,1658405288462
104.62512136037884,34.243272724970694,41,1658405288504
104.60724023642649,34.27773117516716,40,1658405288545
104.62790493370863,34.35180193855704,40,1658405288585
104.69800898237094,34.443671262979464,42,1658405288628
104.74953112114463,34.50734950546843,39,1658405288668
104.80198736186708,34.61606245522594,41,1658405288710
104.88095258387534,34.71762972326605,40,1658405288750
104.96498710497019,34.74689722373344,40,1658405288791
104.83153114576282,34.67856211443745,41,1658405288832
104.50632153913512,34.232995571270685,40,1658405288873
103.76316013241177,33.22744675481207,40,1658405288914
103.5556716992142,32.91871836743629,42,1658405288956
103.45514602871873,32.81510308363002,39,1658405288996
103.46936050987654,32.863496412039126,42,1658405289038
103.74678841022063,33.18063871681648,40,1658405289078
103.90718504937468,33.3401985856988,41,1658405289120
103.94516241098131,33.35301772090701,40,1658405289160
103.94255191276955,33.32452246252063,40,1658405289200
103.89489127965305,33.34633225934675,41,1658405289242
103.89489127965305,33.34633225934675,40,1658405289283
104.08806066625272,33.5096168865491,41,1658405289324
104.1451794131059,33.60028930860631,39,1658405289364
104.32203643710608,33.795812746359566,42,1658405289406
104.39303304203884,33.921695857111466,39,1658405289446
104.46383562200788,33.9947054105681,41,1658405289488
104.52526351190784,34.05798144445099,41,1658405289529
104.56214293232466,34.1605980120598,41,1658405289570
104.44858435983576,34.124077422814096,40,1658405289611
104.51483493188573,34.24113201105361,41,1658405289652
104.61188806898451,34.33708166140865,42,1658405289694
104.68297859793984,34.41962950639169,40,1658405289734
104.72597934475834,34.47266224777423,40,1658405289775
104.10872657036697,33.68791743646083,41,1658405289816
103.64278271644173,33.115004970343534,41,1658405289858
103.35230178655911,32.72629083525717,40,1658405289898
103.14525235744259,32.475931701540944,42,1658405289940
103.05958946820442,32.372825370485316,42,1658405289983
103.19077288084486,32.521764810966914,38,1658405290021
103.37100279880605,32.72825644207035,40,1658405290062
103.4921400168027,32.86102557953428,41,1658405290103
103.54863283386288,32.952037575958016,41,1658405290144
103.54863283386288,32.952037575958016,40,1658405290184
103.6716467710612,33.02543384804699,43,1658405290227
103.71351483084413,33.082611991800015,39,1658405290267
103.81624483018766,33.28180954277124,41,1658405290308
103.90667501954533,33.39337058714555,40,1658405290349
104.05757760415315,33.518351790723386,40,1658405290390
104.08805244222935,33.59116158054353,40,1658405290431
104.15882966685604,33.679630466067366,42,1658405290473
104.26323382275308,33.834903005097985,42,1658405290515
104.27348903705445,33.866785512575326,38,1658405290554
104.36923251955074,33.93683733572893,40,1658405290595
104.48226674638067,34.05220726993442,41,1658405290636
104.51656829645628,34.1763007068567,40,1658405290677
104.41561976440357,34.09221631412573,40,1658405290717
104.0683896373576,33.63511181371259,41,1658405290759
103.60893344593933,33.073358050923844,41,1658405290800
103.20113393320247,32.543895765375915,40,1658405290841
102.7200683869263,32.03354325959063,41,1658405290882
102.74100729246692,31.98002810834334,41,1658405290923
102.8234281122094,32.05811784544697,41,1658405290965
103.14391087929806,32.393809708706435,40,1658405291005
103.24987014466251,32.506904456156015,41,1658405291046
103.25050946795216,32.50889548526916,40,1658405291087
103.21107707916929,32.566905400969866,40,1658405291128
103.35813842910136,32.59077766882789,42,1658405291170
103.65961176458859,32.88209027586313,40,1658405291210
103.77391725865527,32.99825316260892,40,1658405291251
103.84389475915441,33.09701193576158,41,1658405291292
103.94557202993838,33.20389368031141,41,1658405291334
104.07550872262573,33.32926956867262,41,1658405291375
104.14500366661298,33.501356172661595,39,1658405291414
103.97887355532805,33.46223129053771,41,1658405291456
104.03719325169601,33.53470246588421,41,1658405291497
104.17934776608223,33.67865925470176,40,1658405291538
104.24310794972416,33.79676363645198,41,1658405291579
104.33396001184383,33.90062706995102,41,1658405291620
104.41721248980008,33.97588879815801,41,1658405291661
104.3137027422996,33.825694518882415,40,1658405291702
104.02761701320617,33.396089002114735,41,1658405291743
103.32354014142618,32.51491092136785,40,1658405291784
103.16276556206435,32.26068478804889,41,1658405291825
103.05131566706109,32.170218516781866,41,1658405291867
103.06195753253121,32.182276455019476,40,1658405291908
103.18102308029944,32.33600803950211,40,1658405291948
103.49010164517085,32.66627257763796,41,1658405291990
103.58743757670283,32.741999713386384,40,1658405292030
103.61726583388133,32.801446013490065,41,1658405292071
103.74561237997466,32.951217503231234,40,1658405292112
103.78148558386664,32.99437342048876,41,1658405292153
103.84520546901445,33.12721415477071,40,1658405292194
103.9871593871531,33.22239180203112,41,1658405292236
104.02174212300451,33.338720556732184,40,1658405292276
104.18649293404724,33.52154923033595,40,1658405292317
104.22768831599342,33.58970511311199,40,1658405292358
104.25450337384007,33.67335618248944,42,1658405292400
104.36352016986388,33.75683779914725,40,1658405292440
104.40841613612173,33.834027473888604,40,1658405292481
104.30249248739392,33.8164981366324,41,1658405292522
104.35691474475522,33.90838195538779,41,1658405292563
104.39899071739603,34.014879990252545,40,1658405292604
104.21693916284443,33.72681607897225,40,1658405292644
103.76415001075605,33.17406506288897,41,1658405292686
103.3217036176344,32.63539008852303,40,1658405292727
102.99067187249074,32.307576690578195,40,1658405292768
103.02133769081445,32.18494782050995,41,1658405292809
103.03005395614412,32.1773426281584,41,1658405292850
103.17716302121312,32.32477352794726,40,1658405292891
103.34240355075167,32.54852360956006,40,1658405292932
103.51448955918988,32.75296769342585,42,1658405292974
103.61792934671149,32.8324171082368,40,1658405293014
103.54692905990663,32.845544417208664,40,1658405293055
103.61374528728504,32.938236156065486,41,1658405293097
103.67591810625225,33.05080829216595,40,1658405293137
103.76208385282382,33.17309314300441,40,1658405293178
103.98984161676577,33.449585932232395,40,1658405293219
104.05684012462075,33.501918025557075,41,1658405293260
104.10774383840834,33.574338422095565,41,1658405293301
104.26002317429595,33.755684244501325,41,1658405293342
104.326927315273,33.81936078958327,40,1658405293383
104.35430679245388,33.893470668090856,40,1658405293423
104.41479656622192,33.969978562212674,40,1658405293464
104.49246199241844,34.04623716433795,42,1658405293507
104.67803944004618,34.24873386953521,39,1658405293547
104.65930667444951,34.220235825846636,40,1658405293588
104.3518516809113,33.88225240347128,41,1658405293629
103.95101534016186,33.36824972651564,40,1658405293670
103.59770151010338,32.913567208390994,40,1658405293711
103.21604636242694,32.482101294773344,42,1658405293753
103.15699197963596,32.40379194703727,40,1658405293794
103.19546736887406,32.45971077809289,40,1658405293834
103.35651628941889,32.61863558948648,40,1658405293875
103.65889589579427,32.98654074482955,41,1658405293916
103.71959008806652,33.032173072211386,40,1658405293957
103.76125111324245,33.07699732633834,42,1658405293999
103.8057033196394,33.16296621159991,40,1658405294040
103.89885225452105,33.26100703422373,39,1658405294080
104.16249492208186,33.51172119474155,41,1658405294122
104.252175245856,33.66023290530987,40,1658405294162
104.36830669316748,33.77234585600613,42,1658405294204
104.45001292419181,33.875182942047104,40,1658405294244
104.60986357032675,34.08466975068388,40,1658405294285
104.67661605499711,34.16777143912409,40,1658405294326
104.71630907102349,34.19903238548957,40,1658405294366
104.70253329520574,34.249890270120076,44,1658405294411
104.8504477848951,34.373004988986246,38,1658405294450
104.95053887545629,34.497500400010566,40,1658405294490
105.05580332868641,34.6256151183522,41,1658405294532
105.02484796323091,34.56454527181212,40,1658405294572
104.73534727093863,34.23788635545315,41,1658405294613
103.73957720761769,33.11150651410855,40,1658405294654
103.50878582924793,32.801985114559784,41,1658405294695
103.42768058941965,32.651694658653405,41,1658405294737
103.40740342901728,32.62176245665458,40,1658405294777
103.70400928646961,32.97880887450047,41,1658405294819
103.83624012900185,33.11741204448637,40,1658405294859
103.89583332858604,33.20462791173252,40,1658405294900
104.14728537445637,33.36526744834882,41,1658405294941
104.18156866776314,33.389307148867175,42,1658405294984
104.24491144687198,33.529366076499294,39,1658405295023
104.37816167392873,33.5866633096642,41,1658405295064
104.45524581905073,33.684547226386755,41,1658405295105
104.61515265900482,33.96013996205828,40,1658405295146
104.62093763563723,33.98908778982588,41,1658405295187
104.67085258534019,34.10839030513513,40,1658405295228
104.72699388398246,34.13408603927665,40,1658405295269
104.73724030594059,34.21026270925876,41,1658405295310
104.89028034380777,34.3027885710922,41,1658405295351
104.92698342024966,34.38820817542776,41,1658405295393
104.97347344047046,34.44504277623628,40,1658405295433
105.2284832768811,34.61956656051774,41,1658405295474
105.23386205803968,34.62100970939757,41,1658405295515
104.96440444989071,34.28317590935353,40,1658405295556
104.56852078531779,33.72052674163467,40,1658405295597
104.24984794322444,33.26763957265497,41,1658405295639
103.93248081174261,32.92858078105319,40,1658405295679
103.86360271765432,32.8818449156927,40,1658405295720
103.95707557963203,33.0467558367877,41,1658405295761
104.14800773688228,33.1999782135641,42,1658405295803
104.26744126976507,33.323540479557614,39,1658405295843
104.32199062868932,33.39172638190858,40,1658405295884
104.31809800446467,33.33311260660798,41,1658405295925
104.30095795375257,33.374886807026506,41,1658405295967
104.30878578821768,33.453325179033385,40,1658405296007
104.35533806795371,33.53753212099542,41,1658405296048
104.47719371930532,33.64702931910361,41,1658405296090
104.57022335990195,33.74983348648841,39,1658405296129
104.57839581664996,33.843926564748294,41,1658405296171
104.72293215474087,34.00213644105082,40,1658405296212
104.91510951145102,34.06149704624961,41,1658405296254
104.94053722509051,34.124138102203474,40,1658405296294
105.04792356856626,34.21974529493157,40,1658405296335
105.07038897056509,34.242983100258165,41,1658405296376
105.2159116156725,34.43802242267562,41,1658405296417
105.22748670111037,34.44464125342735,41,1658405296458
105.18042952371809,34.36231099073611,41,1658405296500
104.37417080088892,33.40284969254764,40,1658405296541
104.02707162750278,32.95051056576057,40,1658405296581
103.87254352462526,32.741325678751075,40,1658405296622
103.83509787682999,32.61227662098167,41,1658405296663
103.83053258595874,32.60520101929532,40,1658405296704
104.01865519162283,32.87965819422381,40,1658405296744
104.35976496546402,33.09325705204837,41,1658405296786
104.46061088050521,33.175629654168425,41,1658405296828
104.46425684676302,33.211587826302235,40,1658405296868
104.58458538179434,33.24496586871803,41,1658405296909
104.65555482334071,33.350353127899155,40,1658405296950
104.75998650782736,33.50139572852073,40,1658405296991
104.88690495344389,33.558871490283266,41,1658405297032
104.86540487199375,33.69158535790366,41,1658405297074
104.96318823474678,33.806094877394266,40,1658405297114
105.00234648546348,33.90538110248087,40,1658405297155
105.10391772626457,34.00058001582832,41,1658405297196
105.15960585284068,34.0799459290914,40,1658405297236
105.21317560522681,34.12598474903233,41,1658405297278
105.0943349470092,34.20133916079067,40,1658405297319
105.2348480134167,34.28232205271644,41,1658405297360
105.31754216011484,34.4095030063983,41,1658405297402
105.35262723652204,34.46980142745164,40,1658405297442
104.93088074735556,33.96328367306872,41,1658405297483
104.56670162749737,33.40923131717719,41,1658405297524
104.25229627222825,32.96680011033959,41,1658405297566
104.20194095325564,32.785126976959525,40,1658405297606
104.25329161437855,32.71573449987948,40,1658405297647
104.33101298346526,32.84751485320994,41,1658405297689
104.53104331262426,33.0809516262925,41,1658405297730
104.7520422528907,33.28143600882303,41,1658405297771
104.92193057768702,33.429365957027294,40,1658405297812
105.17063955929842,33.555704129443896,40,1658405297852
105.22982426842714,33.61238777645375,40,1658405297893
105.25787842341538,33.732946478631945,41,1658405297934
105.41467373384017,33.837282729716165,40,1658405297975
105.55318318632976,34.07685753294438,41,1658405298016
105.61357872614411,34.197022217623946,40,1658405298057
105.81741135972504,34.33669025675695,41,1658405298098
105.67713964210498,34.36230140245942,40,1658405298139
105.81235499330768,34.53890469863878,40,1658405298180
105.87887806187445,34.61660911806498,41,1658405298221
105.91410456313423,34.654631144004384,41,1658405298262
105.97389710059184,34.72433619083427,41,1658405298303
106.15673756457687,34.90787544250686,40,1658405298344
106.33067307355827,35.05684582592171,40,1658405298384
106.26197740033103,35.02909677775957,42,1658405298427
105.96045907635397,34.60867421086618,41,1658405298468
105.52237035998655,33.986872987694795,39,1658405298508
104.98628404765316,33.21590244809634,40,1658405298548
104.87557117067666,33.0423123155514,41,1658405298590
104.8405439520181,33.01119298308293,41,1658405298631
105.03048131237955,33.14449668144167,41,1658405298673
105.37733516314711,33.47005432244941,40,1658405298713
105.43617354571137,33.62639012774497,41,1658405298755
105.50523113089696,33.635669319369214,40,1658405298795
105.59066334938734,33.680633227491064,40,1658405298836
105.6413873099587,33.739458174307195,41,1658405298877
105.77363757133162,33.92008463146147,41,1658405298918
105.87175594104554,34.03323749390669,40,1658405298959
105.95769797946673,34.16313290636731,41,1658405299000
106.02063158179578,34.25712799654818,40,1658405299041
106.0810879420145,34.35751960812081,41,1658405299083
106.25388946150395,34.50926388823383,40,1658405299123
106.33020105334504,34.664949170693646,40,1658405299164
106.4208662263747,34.73553185720276,41,1658405299205
106.41432170983455,34.73736429207573,41,1658405299246
106.43682296447878,34.81264644078035,40,1658405299287
106.47349429876101,34.912084794135524,40,1658405299327
106.5683636513022,34.98846233636315,42,1658405299370
106.23584018843803,34.564032126197326,39,1658405299409
105.78250775505768,34.00158847408117,41,1658405299451
105.34094689660702,33.44204300732236,41,1658405299492
105.09476247652117,33.12235153721584,41,1658405299533
104.95124839744636,32.96370197761037,41,1658405299574
105.0269361438992,33.033716184297084,41,1658405299615
105.1525842819122,33.197533920087935,40,1658405299655
105.31334692486024,33.33704622282767,41,1658405299697
105.40505339562333,33.419879304018316,42,1658405299739
105.64467527094894,33.57081277924099,40,1658405299779
105.7804687262635,33.67229865341632,40,1658405299820
105.82929345694225,33.77874104764991,41,1658405299861
105.91510699877165,33.82020576507979,41,1658405299903
105.98246434911499,33.9653827506902,40,1658405299943
106.16529744121755,34.17281326408785,40,1658405299984
106.20666230084385,34.31665954722037,41,1658405300025
106.27617880334884,34.42041001522439,41,1658405300067
106.44042601173157,34.579443501145036,41,1658405300108
106.51425735777622,34.641826779858214,39,1658405300147
106.54942782798162,34.754154718498505,42,1658405300189
106.61952894688011,34.789534308505246,40,1658405300230
106.67452580721772,34.926259064229605,41,1658405300272
106.96940487816522,35.14388855370956,40,1658405300312
107.02818625139162,35.19984703009724,40,1658405300353
106.85431459193273,34.99816885084066,40,1658405300394
106.51210149990345,34.4878015550571,42,1658405300436
106.09986064327575,33.95521301058658,39,1658405300476
105.76385178080807,33.40934016466817,40,1658405300517
105.60745905722911,33.28759535434078,40,1658405300558
105.6656760626633,33.315164445746134,41,1658405300599
105.77519052857554,33.49349642346498,41,1658405300640
105.93546452693539,33.66399551722083,41,1658405300682
106.11515033689568,33.78594417843462,40,1658405300722
106.18423646557636,33.8737610878123,41,1658405300763
106.21178719864122,33.95139855198682,41,1658405300804
106.3477052798006,34.04530351612219,40,1658405300845
106.50162970145709,34.2154942772122,40,1658405300885
106.59189192243775,34.32822056164053,41,1658405300926
106.64250323020025,34.41739691754091,41,1658405300968
106.82308651497544,34.6466874815136,41,1658405301009
106.85371711611413,34.752645904496774,40,1658405301050
106.74181225219081,34.72043656591209,41,1658405301091
106.75256926483814,34.75364839331088,40,1658405301132
106.82432937604983,34.84196005782062,41,1658405301173
106.86428208206644,34.93644081408123,40,1658405301214
106.89091961894621,35.00682012677611,42,1658405301256
106.98376224125849,35.05757601642416,39,1658405301296
107.0127941872808,35.137273996051924,41,1658405301337
106.94536138331239,35.01088107140139,40,1658405301378
106.29761502713825,34.08620962484968,40,1658405301419
105.98767582889258,33.688804998436666,41,1658405301460
105.82200547892961,33.43228514443473,40,1658405301501
105.79667957051288,33.350601539183636,40,1658405301542
105.92041675652632,33.54980415569615,40,1658405301582
106.21877356323569,33.753514182601556,41,1658405301624
106.2873758844903,33.875412333468326,41,1658405301665
106.33525577990855,33.9127911683223,41,1658405301707
106.35520586236237,33.91696210080579,40,1658405301747
106.36761999281663,33.95092990879583,41,1658405301788
106.40566539208379,34.03380244715897,40,1658405301829
106.50397737679805,34.062340664603084,41,1658405301871
106.63475977089792,34.29469409629727,40,1658405301911
106.70839563489608,34.41654080133358,41,1658405301952
106.81548435879137,34.50991936616192,41,1658405301994
106.84594301772177,34.59683708365564,40,1658405302034
106.96332645381392,34.72709390854294,41,1658405302075
106.96725764987099,34.8051758240605,40,1658405302116
106.73811216227693,34.70546301210613,41,1658405302157
106.74982460311196,34.77240229087269,40,1658405302198
106.86212147214394,34.86307186672867,41,1658405302240
106.86212147214394,34.86307186672867,40,1658405302280
106.76981937463648,34.71940494792833,42,1658405302322
106.41409552833954,34.32029778139144,39,1658405302361
106.04382124175055,33.79405314085218,41,1658405302403
105.95372383388622,33.480593188694534,41,1658405302444
105.75128278351434,33.21964258624838,40,1658405302484
105.7701441375969,33.22024222563419,42,1658405302527
105.87689426828331,33.3511573324708,40,1658405302567
106.02526673430896,33.52923995445424,40,1658405302608
106.12589155357239,33.64897250738235,42,1658405302650
106.06582906550847,33.63216460567035,40,1658405302691
106.08966537044961,33.639403487761946,40,1658405302731
106.12247564193024,33.68532611842123,40,1658405302772
106.19232238442623,33.814261715487284,41,1658405302813
106.25690690594155,33.915480276821214,41,1658405302855
106.35150573209643,33.9804703087471,40,1658405302895
106.41429052650028,34.080155859441646,41,1658405302937
106.55727830402753,34.195263501531095,40,1658405302977
106.62807457856161,34.337010645719246,40,1658405303018
106.68304860335718,34.40812227606037,42,1658405303060
106.67290798656325,34.42772843607962,39,1658405303100
106.78264031601839,34.53957562598979,40,1658405303140
106.7920837151521,34.580751928503666,41,1658405303182
106.9120062764764,34.7161869233262,40,1658405303222
106.91552456539125,34.7115213616599,41,1658405303264
106.43335046939973,34.04507395376099,40,1658405303304
106.08102918160029,33.528800810958266,41,1658405303346
105.77682126426635,33.1592511967923,41,1658405303387
105.71110372713429,32.99493275018507,41,1658405303428
105.65590877237742,32.88797752377522,40,1658405303469
105.55168931808123,32.92781129009751,40,1658405303510
105.66064499868975,33.085501995992175,40,1658405303551
105.81217922104366,33.22313295844723,42,1658405303593
105.82102980146237,33.26815776138056,41,1658405303634
105.86108660022342,33.31953389358517,39,1658405303674
105.92727601582777,33.36210988944653,41,1658405303715
106.05686852535763,33.490286326208924,41,1658405303757
106.13150003465529,33.56086271803608,40,1658405303797
106.20803799110166,33.67371287958116,40,1658405303838
106.34305896332751,33.86266410216276,42,1658405303880
106.4218125495754,33.905252714592315,39,1658405303920
106.46606573176007,34.02191870875007,41,1658405303961
106.53731058093689,34.07688796979717,41,1658405304002
106.56585864561089,34.14745840019135,40,1658405304043
106.62992047047669,34.236558966263814,41,1658405304085
106.68981537401692,34.29742862265993,39,1658405304124
106.76776367602889,34.42364288395778,41,1658405304166
106.86290275435778,34.53118628508158,40,1658405304207
106.65695222233433,34.284703075745675,40,1658405304248
106.60147122531129,33.88770032268168,41,1658405304289
106.21674345970922,33.412261035624844,41,1658405304330
105.79696212385085,32.906025645310365,40,1658405304371
105.77130251092967,32.82705170538447,41,1658405304412
105.80683140246981,32.85424988899261,41,1658405304453
105.952625927962,33.024108402835644,40,1658405304494
106.1307742429816,33.2078015237334,41,1658405304535
106.11861511320012,33.32031191573742,40,1658405304576
106.13113583449712,33.3762159572743,44,1658405304621
106.16694139950204,33.44627398517075,38,1658405304659
106.23462474642622,33.51826991734132,40,1658405304699
106.40266338248284,33.71376549238708,40,1658405304740
106.49219421573747,33.86595310821914,41,1658405304781
106.46700982847585,33.886211783404654,41,1658405304822
106.5724561305172,33.98251797940133,40,1658405304863
106.62435719083396,34.10201357958925,41,1658405304904
106.69433959122739,34.20649666195389,40,1658405304945
106.75846752770525,34.35137736703309,42,1658405304987
106.83305085730859,34.41246213579384,39,1658405305027
106.88121815577341,34.50324959986704,41,1658405305069
107.25495293931266,34.78462706749685,39,1658405305109
107.34946281526157,34.941894713822464,41,1658405305150
107.40959569123982,35.00736079745447,40,1658405305191
107.27035274423923,34.812118609194684,41,1658405305233
106.90346059800004,34.32511774549613,39,1658405305273
106.2212770674231,33.42245893440859,40,1658405305313
105.82236724609527,33.11378231983903,41,1658405305355
105.74794311422772,32.94974090456429,41,1658405305397
105.70759193558098,32.952276607998144,40,1658405305437
105.9711718902592,33.33021812472941,41,1658405305478
106.15172736940576,33.45859050970382,40,1658405305519
106.22177865960055,33.57544581686537,40,1658405305560
106.27048531333821,33.60426308491449,42,1658405305602
106.40695430606104,33.721550728332396,40,1658405305642
106.49281518290411,33.857240868509166,41,1658405305684
106.5956186911742,33.95586052542078,40,1658405305724
106.70423390406756,34.09897642028544,40,1658405305765
106.8021101467757,34.20636972200585,42,1658405305807
106.91605182894574,34.421441121858514,39,1658405305847
106.96010032304719,34.490850191886494,42,1658405305889
107.01026887466418,34.63101297987831,39,1658405305929
107.09224958725594,34.697867460635734,41,1658405305970
107.1697965309562,34.79967149351875,40,1658405306011
107.24097747533847,34.93175281559858,41,1658405306052
107.35177006359214,35.0118423715757,41,1658405306093
107.39801648853427,35.134814193737384,41,1658405306135
107.41085603018632,35.17636139240274,39,1658405306175
107.13810905109835,34.84096687943356,41,1658405306216
106.76633618795415,34.30365148507901,40,1658405306257
106.45112892785022,33.833181907408566,41,1658405306298
106.22871466820152,33.5704280712793,41,1658405306339
106.07996837618384,33.37725933922187,39,1658405306379
106.12576456187554,33.39671094743489,41,1658405306421
106.31643607764033,33.63373591155876,40,1658405306462
106.47760410427355,33.77998005588569,41,1658405306503
106.5818968358958,33.92372047546906,40,1658405306544
106.58721380785471,33.956853215921875,40,1658405306585
106.60926633255156,34.00548928848082,40,1658405306625
106.68184923944148,34.105547631752344,42,1658405306667
106.88476779858632,34.20105625879354,40,1658405306708
106.94572301314543,34.41937940267796,41,1658405306749
107.02567342418047,34.55082336889385,40,1658405306790
107.12027510244684,34.615568033851495,40,1658405306831
107.18675824145271,34.69683707257948,41,1658405306873
107.30999319745467,34.90329848714258,40,1658405306913
107.15433684660843,34.831585879937364,40,1658405306954
107.20669728134197,34.90447936979928,41,1658405306995
107.25543897593633,34.96454964653345,41,1658405307036
107.29813615548255,35.03232218814172,40,1658405307077
107.40781481159718,35.22423442649868,41,1658405307119
107.4265305197971,35.229883645071396,40,1658405307159
107.23235864703508,35.04380350985797,41,1658405307200
106.44311602047742,34.01164928543073,40,1658405307241
106.20511431029564,33.642909063337264,41,1658405307282
106.08364708831664,33.441442978692216,40,1658405307323
106.0404432807224,33.396243795834664,40,1658405307364
106.11133562641606,33.411256385460874,40,1658405307404
106.38660562178268,33.79556398392302,41,1658405307446
106.61131717093872,33.98990358421854,41,1658405307487
106.66583793482573,34.01745459857965,40,1658405307528
106.68491190600395,34.038137743357204,41,1658405307569
106.69929107176188,34.09415307317142,40,1658405307610
106.78514988963201,34.18330385388058,40,1658405307650
106.8697176562215,34.25428094659492,41,1658405307692
106.91029833981406,34.354410302061595,40,1658405307733
107.04998416096447,34.47691014917038,40,1658405307774
107.13250470898492,34.648965116261586,41,1658405307815
107.19233586608703,34.6867369089723,40,1658405307856
107.23502369243016,34.7885502107408,41,1658405307897
107.23533818867082,34.832790708861836,40,1658405307938
107.28695289000854,34.86264938313563,41,1658405307980
107.2834272994034,34.92084244310737,40,1658405308020
107.17641380804457,34.90625988329822,41,1658405308061
107.15343520671382,34.909736095941646,40,1658405308102
107.14110956563809,34.911056246988856,40,1658405308142
106.8742463908294,34.580543413284005,41,1658405308184
106.53398541635465,34.016395710268,41,1658405308225
106.18953326149983,33.59251474654664,40,1658405308266
106.18093467738959,33.36717416467642,40,1658405308307
106.09206605823886,33.258158692061116,41,1658405308348
106.19743281854943,33.38830672580251,41,1658405308390
106.35839537515085,33.57462985833052,39,1658405308430
106.48080963852954,33.75092850251344,40,1658405308471
106.5427102522608,33.83491622672473,41,1658405308512
106.5691409793522,33.80888789447562,41,1658405308553
106.6268300895016,33.85948739209138,40,1658405308594
106.63102573505876,33.94718546137799,41,1658405308635
106.67393503357289,34.027482705646065,40,1658405308676
106.8523392380281,34.2080202679487,41,1658405308717
106.92031344878228,34.291957480808954,41,1658405308758
106.93619752264055,34.384953153550576,40,1658405308799
106.95475891434887,34.43169801802422,40,1658405308840
107.03689068949552,34.57438059005988,41,1658405308882
107.08096069057245,34.613374851258975,39,1658405308922
107.12054639653968,34.712702329932284,41,1658405308963
107.12714778576321,34.76546406668282,41,1658405309004
107.18625597108917,34.78253138889622,43,1658405309048
107.40540416362842,35.0127599444955,38,1658405309086
107.40345252182135,34.99304302615104,41,1658405309128
107.15833762184292,34.72391925606954,39,1658405309167
106.36024030811075,33.594194198276334,40,1658405309208
106.10612347014785,33.258579560543474,41,1658405309250
105.89852786354572,33.063728608848564,41,1658405309291
105.81870939869583,32.938706051935014,40,1658405309332
105.81479267004295,32.93486293892234,41,1658405309374
106.06645650697828,33.267895841739666,43,1658405309417
106.14217557138534,33.359504292612606,37,1658405309455
106.2271580748631,33.40315396936146,41,1658405309497
106.19279027346903,33.39106637927938,40,1658405309537
106.20125091148208,33.43770586376646,40,1658405309578
106.2409396586662,33.50314138854108,41,1658405309619
106.2381591704048,33.56445187908744,40,1658405309660
106.32207850024031,33.637520941479636,40,1658405309700
106.3902048213468,33.77456576219207,41,1658405309742
106.52262025425739,33.92990507585436,41,1658405309783
106.53635123046013,33.985014748337484,40,1658405309824
106.58878469091263,34.00382129187538,40,1658405309865
106.7468860032298,34.15403284224259,40,1658405309906
106.8396879140326,34.29568926352324,40,1658405309946
106.92661574269238,34.387260760845564,41,1658405309988
106.96411588680695,34.4976427829335,40,1658405310029
107.0748827507851,34.604409647688875,41,1658405310071
106.97674263808682,34.565238904368954,40,1658405310111
106.64368028077718,34.07518557070159,41,1658405310153
106.30827782244762,33.54924770950658,40,1658405310193
105.99383629409022,33.241684195458404,41,1658405310234
105.78988461274491,32.8766956689811,41,1658405310276
105.76795021653129,32.86775414675437,40,1658405310316
105.85866078360601,32.96424849009078,40,1658405310357
106.02213022888236,33.17568055732554,40,1658405310398
106.09660043365932,33.35410337662387,41,1658405310440
106.12676711077006,33.42210856809632,40,1658405310480
106.12253503373569,33.431733881409286,40,1658405310521
106.13181479979676,33.45605701496834,41,1658405310562
106.19000100032446,33.523705156260505,41,1658405310604
106.3256495184608,33.726883847323975,39,1658405310644
106.43261516616644,33.826272693032884,40,1658405310685
106.50685482566007,33.95180355817928,41,1658405310727
106.57666447951658,34.0434979729877,39,1658405310767
106.71402565957663,34.20602662814237,41,1658405310808
106.7815059494551,34.29938242949919,41,1658405310849
106.87316065054591,34.395331218444,40,1658405310889
106.9170262405786,34.49225366770548,41,1658405310931
107.09688343561737,34.636515942725396,42,1658405310973
107.24860566505095,34.8143711514133,39,1658405311013
107.25065771400028,34.91652304694165,40,1658405311054
107.28376423241275,34.93364806585562,41,1658405311095
107.13119602147572,34.75727333434365,40,1658405311136
106.4271040400493,33.72143412366446,41,1658405311177
106.25768405155952,33.42294916380633,41,1658405311218
106.10901328335916,33.24067885085046,41,1658405311259
106.04126407948178,33.13693927659423,41,1658405311300
106.19036367185123,33.3367692695131,41,1658405311342
106.37415118469607,33.52216595595735,40,1658405311382
106.46467209568175,33.66940339328214,40,1658405311423
106.51963601075767,33.72938792998821,41,1658405311464
106.40028739219554,33.717816947801175,39,1658405311504
106.40028739219554,33.717816947801175,42,1658405311546
106.54813884042119,33.90098772480682,40,1658405311587
106.63439640796037,33.99831640670988,41,1658405311628
106.71898482938468,34.09654137156089,41,1658405311670
106.78125896290703,34.20948153868866,39,1658405311710
107.0840531695161,34.50419288251591,41,1658405311751
107.11370820068015,34.610858524763955,40,1658405311792
107.1809475920868,34.65666372382661,41,1658405311834
107.23536997118254,34.74031794418366,40,1658405311874
107.28268541437438,34.89274460688851,40,1658405311915
107.36842059892513,34.99115083070628,41,1658405311956
107.45531543451114,35.05743899552371,40,1658405311997
107.68594894676346,35.3522555996165,41,1658405312038
107.67187169180835,35.34540593977916,40,1658405312079
107.48049735351452,35.08032220193644,40,1658405312120
107.06223858436522,34.56570611765497,41,1658405312161
106.73776723548843,34.03571111666245,40,1658405312202
106.50181228304825,33.69347709102152,41,1658405312244
106.32897379292376,33.48272647089506,40,1658405312284
106.32448775250225,33.50970661738166,41,1658405312325
106.46515466338371,33.63660825094844,41,1658405312366
106.74602943931103,34.004268164748005,41,1658405312408
106.82111755602637,34.11224778983506,39,1658405312448
106.85824918705833,34.13706683717525,41,1658405312489
106.87455828826108,34.194763883354604,41,1658405312530
106.86763518248904,34.22157830492225,41,1658405312572
107.1019764701989,34.52067273827205,40,1658405312612
107.20617183871707,34.603176446670254,40,1658405312653
107.2633385957181,34.76299923061698,40,1658405312694
107.32632712603191,34.829794659321635,42,1658405312736
107.41153313895165,35.04449771482503,40,1658405312776
107.4527662107493,35.08168491784841,40,1658405312817
107.49365280440787,35.11864512792446,41,1658405312858
107.51558789813589,35.18363245847628,41,1658405312899
107.54911841474552,35.25578314147152,40,1658405312940
107.59929502083929,35.374059974292045,41,1658405312981
107.68287067310507,35.484541009139846,41,1658405313022
107.71596070244073,35.51608623182004,40,1658405313063
107.53509581514442,35.35717972111577,41,1658405313105
106.73645057488477,34.23612045847985,39,1658405313144
106.46617789695313,33.79739023946659,42,1658405313187
106.30409474062634,33.602663793847725,39,1658405313226
106.23566815467473,33.53913834433443,41,1658405313268
106.37777329745461,33.62343272272755,41,1658405313309
106.54033277505056,33.84322366221451,40,1658405313349
106.67807255180253,34.00778595721212,41,1658405313391
106.73280934948662,34.07896407169876,41,1658405313432
106.71466563189034,34.08836940612425,41,1658405313474
106.78026886279588,34.13329235062103,40,1658405313514
106.88159285187817,34.30111664152683,41,1658405313556
106.94804208666727,34.42568922672636,39,1658405313595
107.06293215304544,34.53845518395328,42,1658405313638
107.15814447886015,34.72147327004758,40,1658405313678
107.2457361818233,34.805773010171784,41,1658405313719
107.3518975228983,34.93641228735009,41,1658405313760
107.38044304912182,35.020423621888625,41,1658405313801
107.46979262731725,35.10914802803669,40,1658405313842
107.65761021913818,35.32411922151934,42,1658405313885
107.70808263676838,35.40863250381673,38,1658405313924
107.77976091126777,35.52775846472266,42,1658405313966
107.83717722242932,35.64502678508574,40,1658405314007
107.8786086470351,35.69006275855419,40,1658405314047
107.43039416818306,34.99132288505101,40,1658405314088
107.03739467906064,34.427429159672016,41,1658405314129
106.69202014809412,33.98422612255807,40,1658405314170
106.4557143157482,33.643645840970876,41,1658405314211
106.4815299240106,33.69867479310217,40,1658405314252
106.59973745450725,33.828541989154736,40,1658405314293
106.72856249511705,34.014644361207026,41,1658405314335
106.88532118586801,34.20835892649649,40,1658405314375
106.9013099021405,34.22797068902402,40,1658405314416
106.87797745451815,34.26860973501771,41,1658405314458
106.92626229449604,34.29423741071606,40,1658405314498
106.97363829970345,34.38923570576955,42,1658405314540
107.14993554214465,34.548935525361145,40,1658405314580
107.20975264926602,34.6769815930972,41,1658405314622
107.3213723834225,34.80488616407964,40,1658405314663
107.24948675760322,34.87383541168008,41,1658405314704
107.30992394991029,34.94270467364794,40,1658405314744
107.34189654529303,34.97879675344521,40,1658405314785
107.29758629917666,35.01327164675553,41,1658405314826
107.33492595361099,35.03863904961034,43,1658405314870
107.35868532173413,35.082416537310095,37,1658405314908
107.63714854973978,35.3476752931044,41,1658405314949
107.60523398911215,35.308165433087545,41,1658405314990
107.46944409020523,35.06238167562174,40,1658405315031
107.10202783058588,34.59718277940643,41,1658405315073
106.54468865122084,33.75114860761239,40,1658405315113
106.42915107042177,33.61243892698189,40,1658405315154
106.40078828245043,33.574108511390456,41,1658405315195
106.50981960115064,33.70739691927345,41,1658405315237
106.6424852931961,33.90327095030347,40,1658405315277
106.86489203684778,34.117071020854745,41,1658405315318
106.88818207919093,34.09608585443864,41,1658405315360
106.85568755859526,34.14712112973148,39,1658405315400
106.96341424059165,34.23850785665416,41,1658405315441
106.78412930946553,34.20096818485962,40,1658405315482
106.80621941346942,34.267388615870594,41,1658405315523
106.87708437468802,34.35949466860133,40,1658405315564
106.92170255322128,34.40037956438401,41,1658405315605
106.9423453895148,34.570160609870115,41,1658405315646
106.99569891617728,34.55116569150345,41,1658405315687
106.99179751452948,34.590905077871426,40,1658405315728
107.06015595600633,34.646711965272964,41,1658405315770
107.08173359108474,34.69044107777534,40,1658405315811
107.13469352636139,34.70658312109767,40,1658405315852
107.15068678851497,34.79717767131959,41,1658405315893
107.12868500807315,34.83921175143773,39,1658405315933
106.99354939052773,34.65021025048054,41,1658405315974
106.39047558374187,33.74248769785581,41,1658405316016
106.10588737594622,33.319639294399494,40,1658405316056
105.9451211871023,33.13780661748297,41,1658405316097
105.89230738091595,33.07013329593433,40,1658405316138
105.89230738091595,33.07013329593433,40,1658405316179
106.14946221642327,33.369310497161834,41,1658405316220
106.22790152819738,33.497257237549746,41,1658405316261
106.0928296794703,33.412437474675585,41,1658405316303
106.05685829017352,33.473862520310945,40,1658405316343
106.12137750440547,33.513011909920046,41,1658405316384
106.17188494797222,33.574728450434904,40,1658405316425
106.27967257583748,33.65156482694381,41,1658405316466
106.29222431634776,33.7699358233508,41,1658405316507
106.58048210721358,33.97978542775756,41,1658405316549
106.6432368308474,34.083624759040504,40,1658405316590
106.66216782751775,34.12823816635732,39,1658405316629
106.71964971859347,34.17205576791768,41,1658405316671
106.7787430421501,34.25865227394451,40,1658405316711
106.82288008463217,34.352480597176196,41,1658405316753
106.87174324302879,34.40552760693123,41,1658405316794
107.00934394518197,34.571054314073784,41,1658405316836
107.02188095989914,34.577605203001184,40,1658405316876
106.705969290989,34.17267405057215,40,1658405316917
106.29630717922339,33.64199283543524,41,1658405316958
106.01638954322539,33.21974138891365,40,1658405316999
105.8547800256029,32.990675314004164,41,1658405317040
105.67593517551728,32.869788459585706,41,1658405317082
105.779584728023,32.969575995452836,40,1658405317122
105.94149471360743,33.187099020632665,41,1658405317163
106.10391026825243,33.36418098980798,41,1658405317204
106.22121006704822,33.51630330529481,42,1658405317247
106.23553627495181,33.54882686095124,38,1658405317285
106.27111471137488,33.58950878334085,41,1658405317327
106.31684338737392,33.654676276420666,41,1658405317369
106.45478369764129,33.865434097717475,43,1658405317412
106.56403895304078,33.920547504536806,38,1658405317450
106.60735513708312,34.057388858176424,41,1658405317492
106.6915977629626,34.15739213663384,39,1658405317532
106.77214433176152,34.25178684708388,41,1658405317573
106.90405064971583,34.405274588662564,41,1658405317615
106.96986464932081,34.51277987057166,40,1658405317655
106.99884352321453,34.60425904706621,42,1658405317697
107.05723620121944,34.6875617323898,40,1658405317738
107.18760337827541,34.780090395084,39,1658405317778
107.24849787178431,34.92891938276052,41,1658405317819
107.08115396647975,34.648151673473805,40,1658405317859
106.67910828942757,34.0933998592217,43,1658405317902
106.11777291733131,33.33409026484737,39,1658405317942
105.98639196740152,33.21157345579383,41,1658405317983
105.95699042014712,33.147551741376574,40,1658405318024
106.0005767945346,33.201501193744164,41,1658405318065
106.15300916683759,33.42145449027807,40,1658405318106
106.37715762895573,33.73482478544333,40,1658405318147
106.4826057719331,33.761616522881894,42,1658405318189
106.49018497084069,33.84109359821084,40,1658405318229
106.47690485375051,33.88884259270622,40,1658405318270
106.66137992485153,34.06134541222767,41,1658405318312
106.71242464301645,34.16060097143064,39,1658405318351
106.80473387266761,34.31038063335626,42,1658405318394
106.9559673096685,34.43284204639979,40,1658405318434
107.0256668528965,34.55495477941689,40,1658405318475
107.23007179820223,34.749879286565616,41,1658405318516
107.26059439176743,34.867821438746645,40,1658405318556
107.3248272768605,34.92549814425034,41,1658405318598
107.36385605338023,34.98871964300891,41,1658405318640
107.48535794355269,35.21913040238888,40,1658405318680
107.56723641925623,35.31363404780796,40,1658405318721
107.59837580304008,35.34064469848115,41,1658405318762
107.4241946950794,35.18686791176086,41,1658405318803
106.68295375937527,34.03870840493601,40,1658405318844
106.37661885624465,33.66098131223967,40,1658405318885
106.19572580557656,33.45283329818105,41,1658405318926
106.13473930290337,33.32103390843799,41,1658405318967
106.22427874776474,33.448053412085805,40,1658405319008
106.36724460530115,33.66975853949746,41,1658405319049
106.49686490926956,33.85832971545176,41,1658405319090
106.57505911273188,33.962022477424846,40,1658405319131
106.65482566379495,34.027297217397084,40,1658405319172
106.60923424383878,34.11180063991285,41,1658405319213
106.70116714939951,34.1814533341616,39,1658405319253
106.77635490928043,34.299638212618525,41,1658405319295
106.82616679911644,34.38523812330522,41,1658405319336
106.9222898820201,34.499586300050325,40,1658405319376
107.01674545730629,34.710472428293116,41,1658405319418
107.09680858015236,34.800714776983654,40,1658405319459
107.19253743315801,34.883257655170375,42,1658405319501
107.24122611462593,34.94422192554533,40,1658405319541
107.27564298142528,35.029829010198114,40,1658405319582
107.32794440752855,35.17204180833974,41,1658405319623
107.42768317907314,35.250990056980065,40,1658405319664
107.44763669314847,35.332745085968696,41,1658405319705
107.2134159357177,35.01405640064886,40,1658405319746
106.85836670008769,34.41809094241248,41,1658405319787
106.43857872648323,33.8998215445246,40,1658405319828
106.24076996362754,33.53857586221736,42,1658405319870
106.0937072813989,33.40521409035946,40,1658405319910
106.04817275582803,33.39824461292648,40,1658405319951
106.21676984860716,33.54714542084891,40,1658405319992
106.48512916833499,33.83989981234371,40,1658405320033
106.61682703122153,34.00140881898735,41,1658405320074
106.72230612321994,34.060985031234544,41,1658405320115
106.69106252122725,34.071773043658276,40,1658405320156
106.72632530679778,34.153260543699936,40,1658405320197
106.79456117394278,34.2361443279828,42,1658405320239
106.8676331943866,34.43184462539727,40,1658405320279
106.96678039440042,34.54038015053546,40,1658405320320
107.03024202493884,34.64370341678744,41,1658405320361
107.08832337993556,34.722777644216634,40,1658405320402
107.24485445889701,34.93356080825373,41,1658405320444
107.26877733089839,34.97537769068043,40,1658405320484
107.29938341764546,34.99858157887023,40,1658405320525
107.28385212057935,35.03719213038421,40,1658405320566
107.33017276688247,35.16969086597519,40,1658405320607
107.47561033931277,35.35292108321566,40,1658405320647
107.43009973743347,35.3103069938153,41,1658405320689
107.14778367437953,34.92351413199192,40,1658405320729
106.73726253789704,34.313198001407606,41,1658405320771
106.43813705848731,33.84961498013894,40,1658405320811
106.2731369509948,33.51976188042743,42,1658405320854
106.26965820778753,33.47798480555437,40,1658405320894
106.32234251061499,33.62863559711342,41,1658405320935
106.65075410933281,34.01639351817725,40,1658405320975
106.70705503059435,34.13069830465744,41,1658405321017
106.76090758487362,34.18352098783312,40,1658405321058
106.79911523710473,34.22514008809493,41,1658405321099
106.83462069935086,34.282033873133635,41,1658405321140
106.92568471089203,34.458043753330735,40,1658405321181
107.0617132238009,34.56176930905981,41,1658405321222
107.1420446557039,34.717097479391285,39,1658405321262
107.23549175983584,34.78705989766815,41,1658405321304
107.30604899175432,34.86577323407915,41,1658405321346
107.19960560598093,35.00069663951992,40,1658405321386
107.25786366269574,35.045189418920046,40,1658405321427
107.35453957948124,35.18364873104225,40,1658405321468
107.4025900631093,35.27661809286938,41,1658405321509
107.41910043942391,35.37158252519464,40,1658405321549
107.47412630408394,35.45925167914684,42,1658405321592
107.6894317750245,35.59260878170958,39,1658405321632
107.57514226817699,35.44094057780441,41,1658405321674
106.84866710158735,34.38039172328261,40,1658405321714
106.54646214914726,33.97190769764167,41,1658405321755
106.40492682677552,33.67775835110265,40,1658405321796
106.29561339996644,33.580214826345,41,1658405321837
106.30584895195841,33.586523994754344,40,1658405321878
106.66584661289465,34.00846115318808,40,1658405321919
106.79953250871336,34.170826959931446,41,1658405321961
106.94022826929086,34.36243697319408,40,1658405322001
106.94022826929086,34.36243697319408,41,1658405322043
107.03952632128278,34.457817890299665,40,1658405322084
107.09119578478874,34.53363420649291,40,1658405322124
107.11629302615847,34.62812826216504,43,1658405322167
107.17702003449801,34.73165003955245,39,1658405322206
107.29333069281591,34.91479208310998,40,1658405322247
107.33684434768537,35.00901764113644,41,1658405322288
107.39109013560739,35.078454027836784,40,1658405322329
107.50169194232217,35.175290557236906,41,1658405322371
107.59258425512382,35.315791286451706,42,1658405322413
107.60955158913919,35.36939266028564,39,1658405322453
107.68810713623998,35.417309542053864,40,1658405322494
107.7147733271591,35.517482782993724,40,1658405322534
107.78602227936165,35.61145326641981,40,1658405322574
107.69341637857326,35.52604721466048,42,1658405322616
107.40025258870406,35.09739100772159,40,1658405322657
106.77325784410345,34.416263663237146,41,1658405322698
106.51426786050473,34.05493023871639,41,1658405322739
106.33233971445384,33.841655390949136,40,1658405322780
106.4238427331278,33.862419138193395,41,1658405322821
106.50038444231677,34.09306455995731,40,1658405322862
106.65724400476734,34.25513784487002,41,1658405322903
106.72907350390801,34.36338978560488,40,1658405322943
106.98182551886657,34.503177813885415,41,1658405322985
106.97365545713262,34.54991275536314,41,1658405323027
107.02349152904912,34.63746785644958,41,1658405323068
107.12568553760082,34.732903335883755,41,1658405323109
107.1956229278025,34.85433428126632,39,1658405323149
107.28338192400844,34.96248835001648,41,1658405323191
107.39143461750575,35.034771520055536,40,1658405323231
107.43426351095843,35.16604059453131,41,1658405323273
107.49604805517936,35.25684538178933,40,1658405323313
107.49441549211622,35.26036217424424,42,1658405323355
107.4839229550791,35.33136743697711,40,1658405323395
107.54107299377642,35.34900542076929,41,1658405323437
107.66063092022523,35.521969413325834,40,1658405323478
107.70885401373573,35.581916539336184,40,1658405323519
107.66669219019917,35.56447162228647,40,1658405323560
107.43292013287567,35.16431101478471,40,1658405323600
106.6315280651026,34.07774563910891,41,1658405323641
106.4744857532097,33.829440249354136,40,1658405323682
106.42470473474242,33.719926706877025,41,1658405323723
106.21677035792493,33.59527390686834,41,1658405323764
106.295974109501,33.698173942523866,41,1658405323805
106.58795106256832,34.057359233798486,40,1658405323846
106.62985943576547,34.15386002418354,44,1658405323890
106.59127320176253,34.16424778585019,37,1658405323927
106.61449584495745,34.14016997391889,42,1658405323969
106.8069038836054,34.29826118273134,41,1658405324011
106.82406640465626,34.3467704054986,42,1658405324054
106.9056791321334,34.44384044822625,38,1658405324092
106.95539529736288,34.56383606758139,40,1658405324132
107.01763196958251,34.63720822110892,41,1658405324174
107.15984122748694,34.75952809332469,41,1658405324215
107.17137423249682,34.83954752672515,40,1658405324256
107.19433748139056,34.9250203269159,41,1658405324297
107.22772853581796,34.94174959154973,40,1658405324338
107.29036172918728,35.036428274322894,40,1658405324378
107.33534896301285,35.10548874519549,42,1658405324421
107.38841649657758,35.19929130560094,40,1658405324462
107.40008601162572,35.19718629463817,40,1658405324502
107.1729314195872,34.91154064791781,40,1658405324542
106.44677203677452,33.842480057151995,41,1658405324584
106.21177269698865,33.528355245827065,41,1658405324625
106.14261580773041,33.38955332318674,40,1658405324666
106.14193579463335,33.33243274891877,41,1658405324707
106.30244263325812,33.55881434339027,40,1658405324748
106.48717385964369,33.79283252539863,41,1658405324789
106.52236696227442,33.90874177577536,41,1658405324830
106.5499767039696,33.917050682973944,41,1658405324871
106.55646617452061,33.964210813421616,41,1658405324912
106.56747777787723,34.00643113591045,41,1658405324953
106.65087875755773,34.089905731231106,40,1658405324994
106.73995632617385,34.184969425637036,41,1658405325035
106.75862091440365,34.311246295498684,41,1658405325077
106.83374945880752,34.42327559619326,40,1658405325117
106.92450542365742,34.559217155714364,41,1658405325158
106.98751311815306,34.64398087727392,41,1658405325200
107.05066770571551,34.749424547028724,40,1658405325241
107.13651145496954,34.83255563593951,40,1658405325281
107.21465102545801,34.90909528152479,40,1658405325322
107.46393363244056,35.13262186222063,41,1658405325363
