Red,Green,Time difference (millis),Unix timestamps
106.66022903869299,43.38675310998167,0,1658405789728
106.85409734045265,43.574028237367145,42,1658405789771
106.7861806110538,43.50349096065769,40,1658405789812
106.70060496401004,43.4099338125609,39,1658405789851
106.76123120373416,43.46924496731687,41,1658405789893
106.90066575152241,43.69557488947285,40,1658405789934
106.94034917833687,43.80439766281391,41,1658405789975
107.02320855557491,43.895367274992886,41,1658405790017
107.08836859493954,43.986338458891964,39,1658405790056
107.18884820744574,44.12962208914224,41,1658405790098
107.28529551618641,44.269967653674605,42,1658405790140
107.27300795254541,44.29668645808315,40,1658405790180
107.2955905457743,44.33356776157094,40,1658405790221
107.4042537576255,44.505310578518724,40,1658405790262
107.43621650540757,44.581346185532006,41,1658405790303
107.46603079330953,44.574158729343864,41,1658405790344
107.27818980508664,44.28341349509562,41,1658405790385
106.8887115638048,43.652283248735124,41,1658405790426
106.5598559169971,43.1275589914081,40,1658405790467
106.29178921692295,42.69348994281963,41,1658405790508
106.20614208635538,42.62541498795746,40,1658405790549
106.2561892735244,42.68323207795519,42,1658405790591
106.48132932640658,43.08203414568495,41,1658405790632
106.55231431231664,43.1199622684799,39,1658405790672
106.61312278843525,43.20385073139728,41,1658405790713
106.59987992953103,43.22917292063099,41,1658405790755
106.66915292865156,43.282694515869785,40,1658405790795
106.6815573406995,43.37541962530371,41,1658405790836
106.68347362798886,43.35069724648319,40,1658405790877
106.71975141123738,43.40680004847631,41,1658405790918
106.91770144364114,43.6322898842056,40,1658405790959
106.93361193182932,43.72762918126027,40,1658405791000
107.05629284338727,43.79225110935186,40,1658405791040
107.09425149858777,43.8731610135768,41,1658405791082
107.13489063368081,43.90721622299184,40,1658405791123
107.32630564313195,44.15987194225295,40,1658405791164
107.38598628429725,44.30507775456999,40,1658405791204
107.24543415165977,44.210547986875454,41,1658405791246
107.25324381073835,44.259166288434876,41,1658405791287
106.80865331847292,43.48667208616277,40,1658405791328
106.46306875667335,42.95848775299922,41,1658405791369
106.24928960077631,42.69384946266481,40,1658405791410
106.13184861686665,42.53405502961891,41,1658405791451
106.16560996258045,42.56415670822224,40,1658405791492
106.23959627854896,42.70643635174939,40,1658405791533
106.34887637692117,42.91154958100584,40,1658405791574
106.43976780774182,43.00161349025105,41,1658405791615
106.44999605431349,43.04794234369706,40,1658405791656
106.46795860196283,43.05883377620525,42,1658405791698
106.5094476371184,43.136037216571296,39,1658405791738
106.57146692900255,43.229412458868126,40,1658405791778
106.5969155999478,43.29197348432843,41,1658405791820
106.62203942892393,43.342623243974415,40,1658405791861
106.6947271186126,43.42863489106612,41,1658405791902
106.8136390914857,43.61461721956231,40,1658405791943
106.86887297208807,43.675772859010465,40,1658405791984
106.90681260722124,43.81153175159489,41,1658405792025
106.999578163521,43.88005871610429,44,1658405792070
107.04641887918092,43.940848561214594,36,1658405792107
107.06955783353737,43.976539069646385,41,1658405792148
107.12002051411116,44.05224284095505,41,1658405792190
107.13553484635287,44.10157756487287,40,1658405792231
106.77861583919832,43.57669745479598,40,1658405792271
106.3518702462548,42.94255231966528,41,1658405792312
106.03690903544577,42.535941829330554,42,1658405792355
105.72955385088966,42.13498785953695,40,1658405792395
105.69206569473113,42.101407589568474,40,1658405792435
105.73820768342762,42.14614275419375,41,1658405792476
105.82929928629056,42.320598798201964,40,1658405792517
105.99354644686116,42.53106142454737,41,1658405792558
106.00087335377117,42.61808385679601,41,1658405792599
105.99697436510934,42.63910412414917,42,1658405792641
106.05729834374756,42.728052895464316,39,1658405792681
106.02812523499142,42.721785170067506,41,1658405792723
106.2063992938455,42.90484088016826,40,1658405792763
106.18274503710222,42.91426198393242,40,1658405792804
106.30747155179006,43.09040843816098,41,1658405792845
106.50567957295436,43.28083730780039,40,1658405792886
106.5483006125512,43.35189928793844,40,1658405792927
106.67987359120411,43.48343564573597,41,1658405792968
106.72388073155389,43.563295173880455,41,1658405793009
106.78234785946847,43.585569581888045,40,1658405793050
106.85874979281414,43.74758879941817,42,1658405793092
106.8177432371964,43.76747337280179,40,1658405793132
106.87676929452914,43.88327107472148,40,1658405793172
106.82858352566689,43.817062561545924,41,1658405793214
106.53016122279928,43.316261338121265,42,1658405793256
106.22429639382699,42.79429818082871,39,1658405793295
105.91685631733031,42.36244605032246,41,1658405793337
105.88516253881937,42.2723714536252,41,1658405793378
105.90236479004443,42.26885679758618,40,1658405793419
105.97884043916343,42.40575450970633,41,1658405793461
106.24535437256395,42.83360899949579,40,1658405793501
106.28470469235583,42.86341451418674,40,1658405793541
106.26625081755333,42.82409650083976,42,1658405793584
106.27707845412374,42.86247318943193,41,1658405793625
106.26870788498451,42.95765978445408,40,1658405793665
106.31823554127658,43.01633679548697,40,1658405793706
106.42697685201767,43.09352905498352,40,1658405793747
106.42794382157575,43.15854113379786,40,1658405793788
106.59704769024745,43.3712306722376,41,1658405793829
106.65059338228752,43.407075454684225,40,1658405793870
106.75459512461532,43.533633373492336,41,1658405793911
106.79505204196397,43.61067808717851,41,1658405793952
106.78779045352746,43.6262760125497,42,1658405793995
106.97376131553449,43.82630661443216,39,1658405794034
107.0073133540397,43.92208299036988,40,1658405794075
107.09828228253826,43.98583395026278,40,1658405794116
107.06081123904863,43.95074448370025,41,1658405794157
106.75878801741527,43.53221709347014,40,1658405794198
106.12595181413417,42.61028119870369,40,1658405794238
105.95814734996088,42.353015931099804,41,1658405794280
105.8857849966389,42.27292954450076,41,1658405794321
105.8492181538744,42.22734208088343,40,1658405794361
106.04391801822368,42.514665977614264,41,1658405794403
106.32027474572095,42.858681611926606,40,1658405794444
106.34665483231987,42.893309916050704,41,1658405794485
106.35573827843552,42.86172270226969,41,1658405794526
106.38472415527855,42.940519345054014,40,1658405794567
106.3883452494016,42.945482896304306,42,1658405794609
106.51422633449386,43.10290378394486,40,1658405794649
106.5680084567768,43.172032984982735,40,1658405794690
106.6269031474344,43.35919249759231,41,1658405794731
106.70735647480512,43.498918531668814,40,1658405794771
106.77430289932681,43.55118929296395,41,1658405794813
106.80853158949992,43.65622162151079,41,1658405794854
106.89864971052305,43.75890054530546,41,1658405794896
106.99340362833613,43.895566592343194,39,1658405794936
107.02894583945056,43.88186809131592,41,1658405794977
107.07166398749263,43.99011178832564,41,1658405795019
107.16664879341204,44.07382313035304,40,1658405795059
107.10440815109115,43.99375284455079,41,1658405795100
106.76558129124726,43.52110710818058,40,1658405795141
106.41083272296589,42.962048611022816,41,1658405795182
106.13553730579463,42.5770811700125,40,1658405795223
105.84494564542155,42.21941915401633,40,1658405795264
105.78365138055625,42.17975218232698,40,1658405795305
105.84134539432995,42.24960229981594,40,1658405795346
105.94686370786292,42.43616784451108,40,1658405795387
106.12735065189963,42.71404197478354,41,1658405795428
106.11213648887883,42.694073906604814,41,1658405795469
105.96510928290235,42.59691258481734,41,1658405795511
105.99143133101609,42.621441607196004,40,1658405795551
106.03200704825213,42.69966273796182,40,1658405795592
106.21547611713521,42.91526016058519,43,1658405795635
106.25698046437572,42.9819871011681,39,1658405795674
106.3208546070129,43.08461014407888,40,1658405795715
106.61299908933177,43.42413794586038,41,1658405795756
106.70016334823447,43.548975364381526,42,1658405795798
106.78830229513085,43.622613251490854,39,1658405795838
106.80287217596538,43.64574393587428,41,1658405795879
106.85016639227257,43.720136635595374,41,1658405795920
106.980579358417,43.9220246556419,40,1658405795961
107.0880796758081,44.05622800608684,41,1658405796002
107.0004903268287,43.9640686040852,41,1658405796043
107.01817677679327,43.99635710163608,40,1658405796084
106.461267834598,43.12045483379153,40,1658405796124
106.14698686170482,42.68689266501441,41,1658405796165
105.9420769261705,42.3830507365888,42,1658405796208
105.87272516726784,42.276025818067666,40,1658405796248
105.80121754371044,42.215166486354995,40,1658405796289
105.86140402724516,42.41159929289469,40,1658405796330
106.04683396940408,42.62111172079685,41,1658405796371
106.10448986539097,42.74401720058306,41,1658405796413
106.11575177196454,42.76185378413848,42,1658405796455
106.16496550033582,42.81358707202104,39,1658405796495
106.14119064685116,42.8264092635701,40,1658405796535
106.2986792346752,42.9714384103514,41,1658405796577
106.386124804818,43.09375236673691,40,1658405796617
106.4023244742566,43.17031898092882,41,1658405796658
106.61559834864408,43.39396518199265,40,1658405796699
106.66079516298709,43.48897276227698,40,1658405796740
106.73660010066993,43.57263971582111,41,1658405796781
106.81038277635264,43.644941951792426,41,1658405796823
106.80271712906745,43.736281913038674,39,1658405796863
106.84787041268163,43.81696574972763,41,1658405796904
106.91793558331057,43.90320552068696,40,1658405796945
106.97728015852738,44.03196503366912,41,1658405796986
107.02653815922395,44.08917716325969,40,1658405797027
107.11122332389027,44.249291137569735,41,1658405797068
106.99806387678552,44.00964139685573,41,1658405797110
106.60562800266877,43.442440021147696,39,1658405797150
106.3054010727954,42.9343907265679,42,1658405797193
105.94418806513244,42.48607074631284,38,1658405797232
105.89947271169171,42.3918664616507,41,1658405797273
105.91500260694721,42.441253369437675,40,1658405797314
106.02788060242727,42.62403386607572,42,1658405797356
105.94144512328609,42.67072772446955,39,1658405797396
106.06479887171537,42.8512851887012,41,1658405797437
106.05195202091312,42.836259110499896,41,1658405797478
106.04903393751573,42.86725315788173,40,1658405797519
106.08842189188681,42.89049425801105,40,1658405797560
106.21568405237332,43.04569167218317,42,1658405797602
106.51622882431832,43.3646176440167,40,1658405797642
106.58117253487507,43.46638849522395,40,1658405797683
106.68549799372215,43.57078756971127,41,1658405797725
106.81070461158384,43.77077932777698,40,1658405797765
106.88060442247843,43.874407417315055,40,1658405797806
106.94266302033145,43.95133477922656,40,1658405797846
106.96637614226881,44.026863291064636,42,1658405797889
106.86069440250992,43.898984204330226,41,1658405797930
106.99546519325321,44.10412656223179,40,1658405797971
107.07452720631557,44.216135201913765,40,1658405798012
107.1787955676607,44.34999386009545,39,1658405798052
107.2005881663585,44.37894968696701,41,1658405798093
106.69345108508412,43.68152542190685,42,1658405798136
106.4115830836252,43.14631837765424,39,1658405798175
106.09805138256365,42.771049528623394,41,1658405798217
105.97268889109529,42.586726916472855,41,1658405798258
105.82822161981215,42.408273898770375,39,1658405798298
105.84330311370138,42.498287764144045,41,1658405798339
105.99437821629738,42.70658507993479,40,1658405798380
106.15133333753806,42.907429208270955,40,1658405798421
106.09955007034148,42.960499692811375,40,1658405798462
106.14908292899884,42.99755461303358,40,1658405798503
106.21982331218481,43.045840181468115,40,1658405798544
106.28536703260227,43.138978823458956,41,1658405798585
106.3510675750698,43.28308755238553,41,1658405798627
106.3961460839231,43.37102519723071,40,1658405798667
106.52034821565178,43.49085962546524,41,1658405798708
106.53768972967237,43.494307128283154,41,1658405798749
106.60147614317759,43.62032712791706,40,1658405798790
106.6269876233078,43.67988872141066,41,1658405798831
106.69583973846159,43.7292191551473,48,1658405798880
106.68795985423344,43.77240075488456,33,1658405798913
106.76828362602487,43.80585614276522,41,1658405798954
106.74566917636201,43.818266559321565,41,1658405798996
106.7324663762131,43.85880090869652,42,1658405799038
106.68390530935596,43.83580276729405,38,1658405799076
106.53502558050013,43.62694229534875,41,1658405799118
106.25792732571705,43.20305966221147,40,1658405799158
105.75121538979147,42.44860860761818,42,1658405799201
105.55223410291177,42.20586704753087,39,1658405799241
105.5386391206477,42.22058427192006,40,1658405799282
105.57923140834288,42.35464661096478,40,1658405799323
105.86868195454036,42.736013153160144,40,1658405799364
105.96218158113112,42.82448290942455,41,1658405799405
105.91172561222572,42.80403118510819,40,1658405799445
105.8638346698346,42.72940946357459,41,1658405799487
105.87351789353238,42.746255915446156,41,1658405799528
105.88145117474033,42.74503984191328,45,1658405799574
105.90846495805829,42.83887576177462,36,1658405799610
105.94832377667444,42.884711457484336,40,1658405799651
105.99278713685851,42.94558838838231,41,1658405799693
106.07974839025758,43.05385510023746,40,1658405799733
106.08563598763152,43.098050277973414,40,1658405799773
106.1219162025161,43.20301002208054,42,1658405799815
106.19770407161212,43.22324921852514,41,1658405799857
106.29004702847351,43.362396192353366,40,1658405799897
106.3690644555495,43.45574895054362,41,1658405799938
106.43318698654537,43.56030317105265,40,1658405799979
106.5068318348134,43.659317843943526,41,1658405800020
106.66585614310435,43.82824541291052,41,1658405800061
106.15541876192248,43.07430788266714,40,1658405800101
105.87043030261475,42.59344156414391,41,1658405800143
105.68979462830521,42.37790975750307,41,1658405800185
105.58070607171845,42.21475296797641,40,1658405800225
105.52876859111461,42.23311343889064,41,1658405800267
105.51763609600562,42.24869322553178,40,1658405800307
105.63561707370036,42.41347822019337,40,1658405800348
105.66872162571235,42.49485798018743,41,1658405800390
105.64035951660526,42.44496956570367,41,1658405800432
105.64949648516512,42.46062609299751,39,1658405800471
105.66417407856216,42.52614432343948,40,1658405800512
105.7247483492273,42.550158169926206,42,1658405800554
106.00551614299854,42.82599745509991,40,1658405800594
106.10992146842744,42.95027366882502,41,1658405800636
106.14511083323566,43.00245590684294,40,1658405800676
106.14493259305254,43.079214662103695,40,1658405800717
106.21011867035384,43.1566948257044,40,1658405800758
106.2852093329796,43.27823992448847,41,1658405800799
106.15769874005241,43.18608528119656,40,1658405800840
106.17948333954553,43.21251354935221,41,1658405800881
106.20278964614693,43.26115268579156,41,1658405800922
106.22263811903468,43.31937310598527,40,1658405800963
106.29795941883799,43.377434816106735,41,1658405801004
106.07812631330734,43.084352128331304,40,1658405801045
105.74396033974676,42.56559100814355,41,1658405801086
105.35515785018003,42.05281778447878,41,1658405801127
105.03164269346752,41.628742963883155,40,1658405801168
104.96405099050429,41.564433975062755,41,1658405801209
104.97012745828886,41.63173265526478,40,1658405801250
105.02010962267354,41.75971830705231,41,1658405801291
105.12251065091215,41.81345792564495,40,1658405801332
105.26273553978456,41.95542997070097,41,1658405801373
105.19836774585059,41.94036725585268,40,1658405801414
105.2120408456546,41.898694032533484,41,1658405801455
105.13829185309999,41.88066831606974,41,1658405801497
105.12605904416728,41.92630138977152,40,1658405801537
105.17355141762584,41.97360066239822,40,1658405801578
105.19688686520425,42.019078338704375,41,1658405801620
105.05310372496405,41.990843111597506,40,1658405801660
105.21670713809823,42.1200745766484,40,1658405801700
105.26417317860927,42.235236144829855,42,1658405801743
105.35161289668457,42.27170649197234,41,1658405801784
105.37010446879856,42.30704370601562,40,1658405801824
105.37656268785753,42.348793507765926,41,1658405801866
105.48206047202018,42.51340789258731,40,1658405801906
105.52747398037434,42.572890015583596,40,1658405801947
105.55664802265358,42.59171947727506,42,1658405801989
105.41348308936267,42.43863278591563,39,1658405802029
104.82324138215404,41.5666477162274,41,1658405802070
104.63649639483071,41.3449422296288,40,1658405802111
104.50507673641408,41.157137128289065,40,1658405802152
104.49223211413113,41.128982422036074,42,1658405802194
104.52537920061667,41.209503579288025,40,1658405802234
104.67004110180551,41.38615585163298,41,1658405802275
104.75625404300627,41.54331041379159,40,1658405802316
104.80834475195212,41.58501954736486,41,1658405802357
104.82718795302833,41.63689223939703,40,1658405802397
104.80897707975248,41.62670873672582,41,1658405802439
104.87179775596371,41.659442677941044,40,1658405802480
104.91591166043276,41.71507826538189,41,1658405802521
104.9360330211507,41.803860657929874,42,1658405802563
105.04440338039132,41.94680531478184,40,1658405802603
105.10904736831253,42.06475438101151,40,1658405802644
105.16711266216782,42.13613438357366,40,1658405802685
105.17964131993728,42.19191762769499,41,1658405802726
105.34010132167612,42.331706591721314,41,1658405802768
105.3588937381453,42.37134464934253,40,1658405802809
105.42121205888066,42.4060036815606,41,1658405802850
105.42183968617348,42.4904370699103,41,1658405802891
105.53942092540387,42.658868194881826,39,1658405802930
105.70901985464303,42.72302482119189,41,1658405802971
105.53784590575003,42.4512638362567,42,1658405803014
105.19806970579475,41.98725018573133,40,1658405803054
104.9723371478587,41.60548290690095,40,1658405803095
104.75357256245007,41.33425926215187,41,1658405803136
104.73357572076259,41.30018455712602,41,1658405803178
104.72302333346624,41.3115628003331,40,1658405803219
104.5651101723434,41.274392777413155,40,1658405803259
104.67843751763286,41.48317630061919,40,1658405803300
104.83994761690843,41.617992615537126,41,1658405803342
104.84468943249124,41.623120632783746,40,1658405803382
104.84468943249124,41.623120632783746,41,1658405803423
104.9369201682091,41.784021649027984,40,1658405803464
105.07874731709592,41.98364106490911,40,1658405803505
105.23737468003185,42.1668843465325,41,1658405803546
105.3514884478464,42.246681284511624,41,1658405803587
105.49814614889334,42.48379303923737,40,1658405803628
105.55829031904318,42.58351363123628,41,1658405803669
105.6253173554731,42.66030594575821,40,1658405803710
105.71031257731318,42.731352038147925,42,1658405803752
105.78788724525975,42.86389607625004,39,1658405803792
105.82137546713454,42.90691060583333,41,1658405803833
105.92182008659626,42.967521335669986,40,1658405803874
105.96108337850052,43.090314423462836,41,1658405803915
105.98988956485954,43.158136226567606,40,1658405803955
105.95176945729384,43.09871066054576,41,1658405803997
105.38698054948804,42.19572858039336,40,1658405804038
105.11032533534944,41.85310649737548,41,1658405804079
105.01818890750735,41.69170198911887,40,1658405804120
104.91331149675932,41.61367484270515,41,1658405804161
104.98836537694666,41.68415866987014,41,1658405804203
105.08493341162313,41.83987067736441,40,1658405804243
105.2170039713219,41.96898035764035,40,1658405804284
105.26162397654946,42.113433492974714,41,1658405804325
105.37610883624899,42.18685224241756,40,1658405804366
105.44449145234631,42.217589444985066,41,1658405804407
105.43535618128618,42.286724377799885,41,1658405804448
105.50493287687345,42.34423670877495,41,1658405804490
105.66308895881889,42.56748626847271,39,1658405804530
105.73337833945601,42.66720059120308,41,1658405804571
105.77466376043594,42.76904605776831,41,1658405804613
105.82206166393223,42.903541685160484,40,1658405804653
105.88754540489606,42.91832277166361,40,1658405804694
105.93234124478067,43.031779643378265,40,1658405804735
106.05511833499082,43.1345108679232,40,1658405804775
106.10844337410856,43.239743409974366,42,1658405804818
106.2392634394098,43.37354285209087,40,1658405804858
106.29226078444697,43.46713724138454,40,1658405804899
106.32372910949562,43.531506323501176,40,1658405804939
106.22383133519372,43.363296724248244,41,1658405804981
105.94288443350035,42.94070592495208,41,1658405805023
105.61241898897924,42.455355115832035,41,1658405805064
105.24999718349329,41.895455526227444,39,1658405805104
105.08846859517013,41.71762360368591,41,1658405805146
105.03058746375774,41.68504792995233,40,1658405805186
105.17688055909116,41.84068348085853,40,1658405805226
105.28296428448385,42.01936387036003,41,1658405805268
105.34734927619911,42.11664961914333,41,1658405805310
105.37766959093722,42.155061671429884,40,1658405805350
105.39397656670474,42.15006318874139,41,1658405805392
105.37960504986836,42.175350958090505,40,1658405805432
105.46061806995567,42.25366056653086,41,1658405805473
105.52150852317118,42.36609044447874,40,1658405805513
105.6094969907528,42.45523751705191,41,1658405805555
105.66255392020031,42.54384349696666,41,1658405805596
105.72616757597854,42.61652364314934,40,1658405805637
105.86908593268487,42.817179148602236,40,1658405805678
105.90245047715814,42.934432318468794,41,1658405805720
105.94464957380075,42.983518678116845,39,1658405805760
106.00433348009278,43.0523519391497,41,1658405805801
106.03594868328815,43.083314224209126,41,1658405805842
106.04771046961946,43.11527798225265,40,1658405805883
106.09517762066014,43.2103859205319,41,1658405805924
105.97999065391787,43.00540706694296,40,1658405805965
105.64144974308954,42.484891556797976,41,1658405806006
105.31457979015022,42.02297975539681,40,1658405806047
105.07808250113118,41.724166015912715,41,1658405806089
104.96714615947303,41.541717999497045,43,1658405806132
104.77169675812138,41.35861780269265,37,1658405806170
104.66750494295911,41.34545009500878,41,1658405806211
104.75157527634724,41.50522520320903,40,1658405806252
104.85786570403582,41.6155063814241,41,1658405806293
104.9233928614542,41.67986568515468,40,1658405806334
104.92792596731033,41.66895997315279,41,1658405806376
104.88840348422161,41.717675321559064,40,1658405806416
104.95544092911217,41.76476826251328,41,1658405806458
105.02278226612623,41.85082188283188,40,1658405806498
105.08803817794194,41.99377794472301,40,1658405806538
105.1550435744719,42.068700475362014,41,1658405806579
105.22567069617696,42.188494693568664,41,1658405806621
105.33661786304111,42.27859621928078,40,1658405806661
105.36804786718619,42.33404434222512,41,1658405806703
105.48227188974374,42.45633273017212,41,1658405806744
105.52730320396802,42.50939141500092,41,1658405806785
105.53887537456217,42.51362575398185,41,1658405806827
105.62240550358842,42.57940910386312,39,1658405806866
105.65894278490055,42.6772603366958,41,1658405806908
105.65426868958718,42.715463874766755,40,1658405806949
105.56447358010894,42.507555423092384,42,1658405806991
105.06471657349749,41.78250486386832,40,1658405807031
104.9090948423543,41.56401512585294,40,1658405807071
104.86587745679685,41.52207583047879,41,1658405807113
104.86543791050605,41.52105698169218,41,1658405807155
104.94443550572606,41.64853213442245,40,1658405807195
105.21701687042088,41.977232225568216,40,1658405807236
105.24367301808263,42.082397547488355,41,1658405807277
105.26804975220438,42.09956518388479,40,1658405807318
105.2820256926043,42.10609305617592,41,1658405807360
105.36490460668733,42.21735779255243,40,1658405807400
105.43704907408613,42.28278960038526,40,1658405807441
105.50258354811484,42.34768965367045,40,1658405807482
105.53647964804316,42.448913576997725,41,1658405807523
105.56925635813002,42.432330089751126,40,1658405807564
105.68893731295628,42.65074068794054,41,1658405807605
105.78427833034118,42.72999921802763,41,1658405807647
105.85211197957358,42.81914757441233,39,1658405807687
105.94002604878762,42.93139234844935,44,1658405807731
106.02420195811305,43.03030828794529,37,1658405807768
106.20741549530368,43.197292106557754,42,1658405807811
106.26452630941458,43.30158389060304,39,1658405807850
106.3159618848581,43.344219692114365,42,1658405807893
106.12798388100924,43.10095048339005,40,1658405807933
105.82810623730438,42.657773525001886,40,1658405807974
105.53861797887532,42.22631028555401,41,1658405808015
105.3697977828877,42.0302902444236,41,1658405808057
105.1352704402567,41.799827267959316,40,1658405808098
105.13982093209074,41.87904341480569,41,1658405808139
105.30014751191169,42.057199638107946,39,1658405808179
105.44442139674322,42.24969361267378,40,1658405808219
105.5461934219885,42.401607487276515,41,1658405808261
105.56565782251005,42.387711313425946,40,1658405808301
105.7138105318362,42.512508070785046,42,1658405808344
105.75072453160402,42.54679227454603,40,1658405808384
105.85831952580418,42.66932039974864,41,1658405808425
105.92912504299704,42.82579831937365,41,1658405808466
106.0117795514152,42.8886278090472,40,1658405808507
106.08947492664737,42.968962228982434,41,1658405808548
106.09156031895361,43.01757567308717,40,1658405808589
106.03075397573019,43.023407614271406,41,1658405808630
106.0865334878784,43.07286991721373,41,1658405808672
106.10361514609212,43.08627341092464,42,1658405808714
106.10240483591423,43.1114812938656,38,1658405808753
106.14860498483034,43.15806764444556,40,1658405808793
106.19665473059194,43.27342671621373,41,1658405808835
106.17965572087923,43.25000950949585,42,1658405808877
105.98626711978989,42.976079364099974,40,1658405808917
105.64836162115228,42.439978796263695,40,1658405808958
105.05248690049712,41.7329423633618,41,1658405808999
104.94942128179065,41.562806389032275,40,1658405809040
104.84331817112752,41.46371927526252,40,1658405809081
104.80793450126464,41.46708450567333,41,1658405809122
105.05329471267157,41.822447824335335,41,1658405809164
105.14037551501451,41.950015434439244,39,1658405809204
105.16595141298706,41.99412901227698,41,1658405809245
105.18895568705136,42.001878320618836,41,1658405809286
105.21359098944362,42.06177745961384,40,1658405809327
105.26620550929874,42.1090772692076,41,1658405809368
105.2736202670751,42.16442690285371,42,1658405809410
105.33817744819743,42.27779272490236,40,1658405809450
105.38847017161362,42.337795608162736,40,1658405809491
105.4799087948254,42.455109742852876,40,1658405809532
105.60781182452666,42.597155002836516,41,1658405809573
105.67117561248341,42.69922182151527,40,1658405809614
105.76001532293594,42.75439762026831,40,1658405809655
106.01195176320238,42.985801005406394,40,1658405809696
106.14658339050442,43.09462148817401,40,1658405809736
106.19345852342883,43.17379957827826,41,1658405809778
106.26769630841625,43.24720984169014,40,1658405809819
106.08514911751718,43.04335719233497,41,1658405809860
105.76586539559679,42.52924397969516,41,1658405809901
105.3338731341745,42.05405225016869,41,1658405809942
105.14387677196453,41.78996953544226,40,1658405809983
105.03909763173363,41.69111215405709,41,1658405810024
104.95966558577368,41.603321654076545,40,1658405810065
105.03182048774329,41.7336550247043,40,1658405810105
105.15320275877951,41.915091654470224,42,1658405810148
105.25936614763731,42.05169135913249,40,1658405810188
105.17009307832456,41.94850578122464,42,1658405810231
105.21606604338649,41.990111042792535,38,1658405810270
105.26465080538662,42.04804750906157,42,1658405810312
105.30349295866534,42.1426221871274,39,1658405810352
105.38639145740558,42.22277140466906,41,1658405810393
105.54338930504645,42.44419131453384,41,1658405810435
105.9246842375859,42.75176759882822,41,1658405810476
106.01125498771938,42.85141408728505,39,1658405810516
106.13047064959915,43.014390022372325,41,1658405810557
106.17334875935353,43.091906796682075,41,1658405810598
106.20456496568107,43.11766106146785,40,1658405810639
106.24088888457112,43.19080287231221,41,1658405810680
106.27410305281387,43.24770407593818,40,1658405810721
106.20167920395335,43.21248432069584,41,1658405810762
106.20953008758909,43.2318568873033,40,1658405810803
106.00793464978744,42.98062528699985,41,1658405810844
105.66843732943624,42.46529597309836,40,1658405810884
105.15809892747586,41.78713445079991,41,1658405810926
105.03424631046437,41.66166341149277,41,1658405810967
104.9803603277158,41.57863770051546,41,1658405811008
104.9758658564242,41.611650660169516,40,1658405811049
105.04385036882474,41.72815859963179,42,1658405811091
105.21281034811562,42.019811222837355,40,1658405811131
105.2592791526418,42.0391907926458,40,1658405811172
105.24181424131052,42.0015331582985,40,1658405811213
105.24485883251896,42.04208518045257,41,1658405811255
105.28762217148937,42.11427346151626,40,1658405811295
105.32746053092745,42.16782198002125,41,1658405811336
105.40208627699997,42.24976706031456,41,1658405811378
105.45163550672976,42.29417618322255,39,1658405811418
105.48176709144172,42.36885894186216,40,1658405811459
105.48581800598924,42.40655527071671,40,1658405811500
105.41980951686298,42.360187948199375,41,1658405811541
105.37978727575103,42.38652802632679,40,1658405811581
105.3561333804808,42.357724775538536,42,1658405811624
105.32873712667208,42.379440499983595,39,1658405811663
105.3534662940848,42.406882327739496,43,1658405811707
105.36579127121638,42.47113293126734,39,1658405811747
105.39677036470675,42.46162521699676,40,1658405811787
105.02847550690336,41.98847660745633,40,1658405811828
104.84150261210146,41.61110629237307,40,1658405811869
104.61512785333224,41.36013411230875,40,1658405811910
104.49633475053872,41.204973686168806,41,1658405811951
104.49981768866593,41.1693858893025,40,1658405811992
104.51961768684839,41.27247671299002,41,1658405812033
104.7447707785359,41.51172616540828,40,1658405812074
104.87997942553028,41.66013003591776,42,1658405812116
104.92362912588055,41.78630740714162,41,1658405812157
104.96846672880207,41.79966032576261,39,1658405812197
105.00400232082052,41.841522375683155,47,1658405812244
105.00559397671759,41.89395466862512,35,1658405812279
105.06610067495791,41.9610360438472,40,1658405812320
105.0990958467479,42.023364044697814,40,1658405812361
105.16892397473185,42.104024316662276,46,1658405812407
105.30373994894342,42.24604013990293,35,1658405812443
105.38001358135409,42.35458010863809,40,1658405812484
105.46500303623901,42.42347782752894,40,1658405812525
105.54950372480135,42.53159193583426,41,1658405812566
105.42163178077556,42.468151302728565,40,1658405812607
105.46702452002057,42.5356955193976,40,1658405812647
105.52204263267492,42.61785798501739,42,1658405812690
105.63891130858985,42.73588526592391,40,1658405812730
105.64167042280019,42.73730192300698,41,1658405812771
105.46530551909171,42.52339259356803,41,1658405812813
105.1930308501415,42.057723004058246,39,1658405812852
105.02973953823397,41.83186702260594,41,1658405812894
104.80913521477066,41.49243207186657,42,1658405812936
104.81599569955438,41.47648816109026,39,1658405812976
104.84649867862231,41.51743708247475,42,1658405813018
104.95564304517484,41.703812533102365,40,1658405813058
105.2070903651055,42.03971853222598,40,1658405813099
105.23483224491247,42.07587398430141,40,1658405813140
105.2953717331099,42.10624387316644,41,1658405813182
105.2820788423852,42.15100071721197,41,1658405813223
105.39076269042107,42.2824060964714,40,1658405813264
105.45624600344951,42.319255368126676,40,1658405813304
105.50928705249214,42.381050321550056,41,1658405813345
105.5443418811227,42.47814563547732,40,1658405813386
105.64479791276028,42.55125496462136,41,1658405813427
105.75995975643895,42.7147012649783,40,1658405813468
105.82781907094477,42.78804101841829,41,1658405813509
105.88757446076067,42.83136434012788,40,1658405813550
105.9435080093096,42.948198266374355,42,1658405813592
106.02919774081306,43.03156153919844,40,1658405813632
106.10091911437581,43.17358086427935,42,1658405813674
106.19123559193707,43.297625620484105,39,1658405813714
106.23817818674206,43.38254471223497,42,1658405813756
106.03942736376331,43.12244294295073,40,1658405813797
105.71943841378788,42.626033448233095,39,1658405813836
105.5363604971945,42.29941724657297,41,1658405813878
105.38407446828853,42.13046017917724,41,1658405813919
105.26817150355748,42.011118020326805,40,1658405813960
105.32902299362723,42.03419536297877,41,1658405814001
105.42138958662929,42.219130870114725,41,1658405814042
105.57585374741205,42.37023870111448,41,1658405814084
105.66027371725175,42.51613835114756,42,1658405814126
105.7106853032875,42.57993826153036,38,1658405814164
105.73497317909755,42.57299892081575,42,1658405814206
105.74963954478523,42.62044655837974,40,1658405814247
105.83514610637104,42.666689284140105,41,1658405814288
105.94078872089767,42.79189944963547,43,1658405814331
106.10411561960166,43.00517509686489,39,1658405814370
106.16060862485841,43.10409516689811,41,1658405814411
106.2384624898001,43.2119898972842,41,1658405814453
106.24349970763399,43.27303560507355,41,1658405814494
106.34484713347024,43.43817067239015,39,1658405814533
106.38828333474396,43.493772226075315,41,1658405814575
106.42123279882776,43.51702077901117,40,1658405814616
106.56228630560588,43.64844661635191,41,1658405814657
106.60506601937874,43.7414969133702,40,1658405814697
106.89577770071321,44.03145468876936,41,1658405814739
106.92329145941301,44.036568750965465,40,1658405814779
106.77326962012626,43.83620271279321,42,1658405814821
106.18623840234011,42.916532377234795,40,1658405814862
106.02326492945235,42.715205454433494,40,1658405814903
105.92506694781548,42.606258193152584,53,1658405814956
105.8708085669956,42.514722103074284,28,1658405814985
105.65451853062041,42.36433456863442,40,1658405815026
105.7567548450969,42.529466636071795,40,1658405815067
105.90814883451014,42.73955402969503,41,1658405815108
105.97453859170326,42.80685417280001,40,1658405815149
105.91435542924569,42.73675850097012,41,1658405815190
105.96697553158936,42.791741682848496,41,1658405815231
106.13330471557691,42.97592825640608,41,1658405815272
106.14203222353609,43.04046190479255,40,1658405815313
106.24732153398088,43.145484498765256,42,1658405815355
106.28189862088152,43.23792746830036,40,1658405815395
106.46189811902383,43.39682385751473,40,1658405815436
106.50645220829585,43.52042980268566,41,1658405815477
106.56158612461155,43.53113203026537,40,1658405815518
106.57465217498338,43.60269838401526,41,1658405815560
106.57871486691005,43.62818601958977,40,1658405815600
106.58477544682967,43.641658046762856,40,1658405815641
106.65044516201056,43.744743453786235,41,1658405815682
106.72908442032997,43.81398513828516,41,1658405815724
106.83291806508635,43.92288527422322,40,1658405815764
106.67362677257495,43.77133651238137,39,1658405815804
106.30678801958544,43.312756366833554,41,1658405815846
106.000259379042,42.80071332287059,41,1658405815887
105.68646279308484,42.410890127381506,41,1658405815929
105.5718999151996,42.27507690928791,40,1658405815969
105.52578905626069,42.2440371639356,42,1658405816011
105.56837488172437,42.330015558335354,39,1658405816051
105.78543000387378,42.54931427482777,40,1658405816092
105.93008620083964,42.72649427589398,41,1658405816133
106.00443697094704,42.85032472852658,41,1658405816175
106.07582207171464,42.90039512214185,40,1658405816215
106.11273781679427,42.96803239689052,40,1658405816256
106.1320018241849,42.96734265164852,41,1658405816297
106.14314307874497,43.012984588179826,42,1658405816339
106.17841267906829,43.07385373481314,42,1658405816381
106.20823410657397,43.099822394376496,38,1658405816420
106.28659987585127,43.206702719835214,40,1658405816461
106.36409982430911,43.32210554959878,40,1658405816501
106.4210463742952,43.369691520549246,41,1658405816543
106.45593099483926,43.4405295166873,40,1658405816584
106.38818397539922,43.38860751676912,41,1658405816626
106.47198737610898,43.52784935363476,40,1658405816666
106.52981704778011,43.57323770772605,40,1658405816706
106.54322317828371,43.60301153939205,41,1658405816748
106.52476039313359,43.62973434891316,40,1658405816789
106.10510023657844,42.9842749528898,40,1658405816830
105.88981721664845,42.64643727162933,41,1658405816872
105.70809566607909,42.42705181013773,39,1658405816912
105.5699804031355,42.297754818518875,42,1658405816954
105.58692813757358,42.32841271202384,40,1658405816994
105.68922973695334,42.47449308200359,40,1658405817035
105.81986720438681,42.62193032181484,41,1658405817076
105.97179111448759,42.73387311101021,42,1658405817118
105.95979919656656,42.80002266307617,39,1658405817158
105.94964506081158,42.81200150735277,40,1658405817199
105.98444875951634,42.858648723749084,41,1658405817240
105.93654896577982,42.839217616642465,41,1658405817282
105.97982389169476,42.883651147549,40,1658405817323
106.01749702208497,42.97679933495041,40,1658405817363
105.99528714804859,42.988639574277315,41,1658405817404
106.0344443987799,43.059217142365235,40,1658405817445
106.11859692289352,43.12289172959819,40,1658405817486
106.13061406018062,43.22256739588453,41,1658405817527
106.23193661388211,43.35673558840627,41,1658405817568
106.27421915962441,43.37602063775665,40,1658405817609
106.34596439041655,43.46624843016614,40,1658405817650
106.38194896331123,43.545294488580865,41,1658405817691
106.51177454165475,43.65886297618709,42,1658405817733
106.51007626948297,43.71701671321682,39,1658405817773
106.27981148394167,43.38310265048159,41,1658405817814
105.96409785044858,42.959344664141305,41,1658405817856
105.52779769621549,42.323598722685404,39,1658405817896
105.52779769621549,42.323598722685404,41,1658405817938
105.57384728816453,42.32897765473772,40,1658405817978
105.53747075865147,42.367202413293,40,1658405818018
105.82631942048187,42.705043568185424,41,1658405818060
105.87779767078354,42.80613948359642,41,1658405818101
105.94219784538927,42.8741534557611,42,1658405818143
105.9494360784542,42.93147841993561,39,1658405818183
105.9197965072197,42.900726113261086,41,1658405818225
106.03858066982536,43.01377236915666,40,1658405818265
106.13014788525305,43.11667741542039,40,1658405818306
106.19308787066939,43.198679264949796,41,1658405818347
106.26775590401655,43.28274487211756,41,1658405818389
106.38743778117589,43.473175269402844,40,1658405818429
106.37843686555692,43.51649543054019,41,1658405818471
106.43042117558673,43.55773046092595,40,1658405818511
106.479396012917,43.646364584441734,40,1658405818552
106.48252789413186,43.64503664912984,41,1658405818593
106.55939193227147,43.76843798776413,41,1658405818634
106.57762098839385,43.83544793872413,40,1658405818674
106.65794104474287,43.886287934732216,42,1658405818716
106.74198079058323,43.97503571617896,41,1658405818758
106.68887153806361,43.916400155173626,39,1658405818798
106.08490069253651,43.133415589752765,41,1658405818839
105.88021823959718,42.79370053704781,41,1658405818880
105.74613086373233,42.61513560289552,40,1658405818921
105.66814741404943,42.51995693047471,40,1658405818962
105.7010470972416,42.57319656796332,42,1658405819004
105.86222350693265,42.764809293458946,39,1658405819044
105.95940278663937,42.957067798114586,41,1658405819085
106.01594978635785,43.016198724288245,40,1658405819126
105.9969194123708,43.02600474120246,40,1658405819166
105.97069062060535,43.01020339436118,42,1658405819208
106.04510673834824,43.11763050566759,40,1658405819249
106.01102868652447,43.12405775899726,41,1658405819290
106.07104097322144,43.21998680043284,40,1658405819331
106.16309082654334,43.31975143833568,40,1658405819372
106.16085515430905,43.33508794180684,41,1658405819413
106.20869828593897,43.38898156617055,42,1658405819455
106.3515990318487,43.583578216789306,39,1658405819494
106.51684772267834,43.723125999580034,41,1658405819536
106.60404440633488,43.83594997563532,41,1658405819577
106.65698073158103,43.900904422012516,40,1658405819618
106.67170171532246,43.921427679408026,40,1658405819659
106.79855011652592,44.051568043450494,40,1658405819699
106.88246883768943,44.165794346530554,41,1658405819741
106.80116687609052,44.07624416740646,40,1658405819782
106.45123672111686,43.605129554318225,41,1658405819823
105.87398306474455,42.8099294256428,42,1658405819866
105.76068405983335,42.61771654741696,47,1658405819914
105.65761914237135,42.51716194077,31,1658405819945
105.632841415141,42.45086753467509,42,1658405819988
105.67958051377474,42.53865424617318,40,1658405820028
106.01041392476043,42.92619493480175,40,1658405820069
106.02024529243926,43.00296792421574,41,1658405820110
105.99337488613253,42.99568356627022,43,1658405820153
106.07860336871295,43.07351909898956,38,1658405820192
106.12506449888565,43.14410858445705,41,1658405820233
106.18871933140889,43.23898138480876,41,1658405820275
106.25918318524464,43.317224390169365,39,1658405820315
106.2071895257418,43.32354718190886,41,1658405820356
106.28671631497292,43.4158278747435,41,1658405820397
106.39289929221786,43.53481987383974,40,1658405820438
106.50236091082019,43.640860795715014,41,1658405820480
106.5957158989736,43.790150658183705,39,1658405820520
106.72913747075665,43.948234018205774,41,1658405820561
106.82142379840354,44.01630912622143,41,1658405820602
106.87027561481636,44.08653076803435,40,1658405820643
106.92027234222951,44.18591543886962,41,1658405820685
107.02115422792042,44.298557977915735,40,1658405820725
106.86943751451315,44.11230396168196,40,1658405820766
106.58163972097793,43.641556815974255,40,1658405820807
106.28566585155488,43.218375367861896,41,1658405820848
106.20895878636168,43.01868157012279,41,1658405820890
106.11747215673205,42.845697140723246,40,1658405820930
106.07345851902068,42.81315006773584,40,1658405820971
106.16226426625423,42.922488870097766,40,1658405821012
106.33212471590787,43.166959856515916,41,1658405821053
106.44854263274271,43.319938197529204,41,1658405821095
106.3644260755488,43.27302573395353,40,1658405821135
106.44344901865122,43.357951938509245,44,1658405821180
106.43777646627893,43.369226389795145,37,1658405821217
106.497319132185,43.45474555497885,40,1658405821258
106.61249784133378,43.61963404226962,41,1658405821299
106.73806803135335,43.75074903816738,42,1658405821341
106.78303059616081,43.85080970701839,39,1658405821381
106.98155657434927,44.04397473146438,40,1658405821422
107.10653475371265,44.186203251813374,44,1658405821466
107.13583869812419,44.21899225989583,37,1658405821504
107.20945718733452,44.291268291978895,41,1658405821545
107.2302946199635,44.33758578572619,40,1658405821586
107.27570057569858,44.4401037181605,40,1658405821627
107.33052492550803,44.520490993424666,41,1658405821668
107.3692528688627,44.61995358580412,40,1658405821709
107.32436303849329,44.5336758104581,40,1658405821750
107.11729512032917,44.24029182042206,41,1658405821791
106.7840280898564,43.757040561788706,40,1658405821831
106.36099516853466,43.11941749794688,41,1658405821873
106.25512555835058,42.99714356574512,41,1658405821914
106.1249866129462,42.8868755086369,41,1658405821955
106.18473946058168,42.93015966731069,40,1658405821996
106.45804938327115,43.30078316059584,40,1658405822037
106.57246109551738,43.436555449545885,41,1658405822078
106.55146426949597,43.45824315607685,41,1658405822120
106.64753608085499,43.59333058418162,40,1658405822161
106.75352183074159,43.73845143600568,39,1658405822201
106.77841884479682,43.77293912471341,41,1658405822243
106.9183273263003,43.91051189884126,39,1658405822282
107.03251688751118,44.07935824418407,41,1658405822324
107.181145431169,44.26216563509321,40,1658405822365
107.16973820729379,44.31666091315332,40,1658405822406
107.24901796216477,44.370479104298454,41,1658405822447
107.22102882690899,44.39340422172775,40,1658405822488
107.29801183448251,44.45829549252989,41,1658405822529
107.316837421032,44.490564521674266,41,1658405822570
107.34352591579534,44.52703679192193,41,1658405822612
107.38584135525718,44.66091864657312,39,1658405822651
107.48315310097865,44.72117352995678,41,1658405822693
107.40908429554372,44.71583937199212,41,1658405822734
107.14051705549787,44.34674946284803,40,1658405822775
106.78021120002586,43.79835414838159,40,1658405822816
106.52291695387851,43.40581570424424,40,1658405822856
106.22784972427667,43.04809206599462,44,1658405822900
106.12217599864255,42.976762542355054,38,1658405822939
106.18203090615964,43.02503139995648,41,1658405822980
106.31873669805856,43.164385485254584,41,1658405823021
106.36204104571948,43.32431348670401,40,1658405823062
106.48641952515311,43.47481569669571,40,1658405823103
106.49230946532077,43.470618524051595,41,1658405823144
106.49917319725932,43.537830703351105,41,1658405823185
106.61123017526495,43.63670170653783,40,1658405823226
106.61123017526495,43.63670170653783,40,1658405823267
106.85873081377713,43.95116246417757,40,1658405823308
106.97632996254515,44.084779733299385,41,1658405823349
107.00820832024431,44.15103003908183,41,1658405823391
107.0752062194274,44.24454711918301,39,1658405823430
107.24083662490938,44.45055409593047,41,1658405823472
107.27938852303015,44.49198400913768,40,1658405823512
107.25697435222378,44.526470216806246,41,1658405823554
107.33300411977689,44.622950175151296,40,1658405823595
107.40453122490709,44.72856438842977,40,1658405823636
107.49840015771895,44.855766149524996,42,1658405823678
107.51473473972845,44.90324508372274,40,1658405823718
107.48646723723812,44.81201746132759,40,1658405823759
106.87376597636819,43.98915812837566,40,1658405823799
106.57005939587458,43.521398705079356,40,1658405823840
106.4309040674616,43.351540344389825,42,1658405823883
106.35139128785909,43.24742089479597,40,1658405823924
106.30390442296675,43.16467019330095,40,1658405823964
106.46012039328554,43.358927027509615,40,1658405824005
106.54116921074603,43.51367599582276,41,1658405824046
106.4122940979637,43.42548079163331,42,1658405824088
106.4588634940987,43.521667852877684,39,1658405824128
106.51046586092735,43.56700812874824,41,1658405824169
106.6169885568309,43.68244120900912,40,1658405824210
106.68373677265902,43.799717475858465,41,1658405824251
106.90120650996232,43.99992762347992,40,1658405824291
107.15259882052595,44.29284586160436,42,1658405824334
107.1729133906889,44.40027665305565,40,1658405824374
107.25746497813253,44.48533392735492,40,1658405824414
107.42203951912268,44.69419292580058,41,1658405824456
107.4754258103103,44.770999535899264,41,1658405824497
107.55669224038496,44.84872578405526,41,1658405824538
107.59167054894277,44.91974958123971,40,1658405824579
107.61122363449948,44.97613905614316,41,1658405824620
107.66520435305932,45.036574592563504,40,1658405824661
107.77004284915188,45.20098025792262,41,1658405824702
107.7629616263336,45.20253345429332,41,1658405824744
107.49619858162811,44.84926123688397,40,1658405824784
107.12252560288027,44.295526169746346,41,1658405824825
106.62103243112881,43.597658700620066,40,1658405824865
106.49783022100183,43.419422753393484,42,1658405824908
106.46961903779504,43.39957002420736,40,1658405824948
106.48737803773099,43.45125040361871,41,1658405824990
106.6030465721899,43.594743955267745,39,1658405825030
106.80406614185915,43.93497997606106,40,1658405825070
106.8842036556128,43.97508125066155,41,1658405825112
106.87118220614741,43.97622052887092,40,1658405825153
106.90050320049568,44.00484273553166,40,1658405825194
107.07024837004764,44.1958197478995,46,1658405825241
107.14337598242037,44.29868488838917,36,1658405825277
107.24498915648303,44.461244309701016,40,1658405825317
107.35773840444256,44.54502843287125,40,1658405825358
107.51250455368029,44.80202778653557,40,1658405825399
107.58909943435214,44.9315230464595,41,1658405825440
107.65392396489818,45.00280276879557,40,1658405825480
107.74283158381672,45.10922744517186,41,1658405825522
107.86744437551818,45.25732492272832,41,1658405825563
107.94351823092995,45.36486496504823,41,1658405825604
108.02959965015089,45.47997587600245,40,1658405825645
108.1396797086594,45.63131514559959,41,1658405825686
108.18445142546574,45.73195736977716,40,1658405825727
107.9178039924949,45.28579053005703,41,1658405825768
107.50099802573254,44.72698183618715,40,1658405825809
107.28419787746753,44.3323909399639,40,1658405825850
107.12199082943243,44.10935712987139,41,1658405825891
106.92241405619285,43.86510969751245,40,1658405825932
106.90301123632236,43.91786222183913,40,1658405825972
107.01631897830453,44.09019445144743,40,1658405826013
107.16195428741094,44.2954612967643,42,1658405826055
107.18288528631933,44.3501664438677,41,1658405826096
107.19300285394257,44.38962608924787,42,1658405826139
107.25433996694255,44.44162074667503,38,1658405826178
107.3018747606003,44.52337138236905,41,1658405826219
107.3862573983318,44.648479798244914,40,1658405826260
107.6172286479221,44.94989623063381,41,1658405826301
107.79313087105675,45.138083291371636,41,1658405826342
107.89818265191911,45.27048177472761,40,1658405826383
108.01161668740559,45.41186031259594,41,1658405826424
108.27224164332353,45.73744076368194,43,1658405826467
108.36310877405936,45.847296142890734,38,1658405826506
108.36279523372195,45.896729001550604,41,1658405826547
108.46092611868147,45.97522796859747,40,1658405826588
108.57318405440788,46.084653758788924,41,1658405826629
108.67058189517195,46.26650103004967,40,1658405826670
108.75577349595966,46.38258876394586,40,1658405826711
108.5607012081071,46.219313746417505,42,1658405826753
108.26534991823792,45.78847003947861,40,1658405826793
107.66884918572913,44.784370071624515,40,1658405826833
107.49290720631018,44.553605953330376,41,1658405826875
107.44992549074902,44.48622916600225,40,1658405826916
107.37501484345842,44.42939638127269,41,1658405826958
107.71240559989081,44.79372026637582,40,1658405826998
107.87657520005132,45.027865983334536,41,1658405827040
107.97357247564224,45.13848130495977,40,1658405827080
107.94405153474861,45.16859190027666,41,1658405827122
108.0042670554979,45.210508711544236,40,1658405827162
108.11988269856471,45.34666665843573,40,1658405827203
108.22117493056732,45.47441370441244,41,1658405827244
108.23568896481407,45.56628755662229,40,1658405827285
108.3439049411009,45.734162441278734,41,1658405827326
108.54279669080466,45.96435502314733,40,1658405827367
108.66773178975473,46.15126624045014,40,1658405827407
108.78624283598151,46.30426871995189,41,1658405827449
108.84396730064856,46.39933526082132,41,1658405827490
109.11759651944061,46.682113834354155,40,1658405827531
109.208611653773,46.792558537071116,40,1658405827572
109.29951202478145,46.92474586525695,41,1658405827613
109.33190062288679,47.02683461499214,40,1658405827654
109.41873501446162,47.12879523840138,40,1658405827695
109.24260738194681,46.849937963300675,41,1658405827736
108.8934262695779,46.28047467125312,40,1658405827777
108.30351817870962,45.535635346234415,41,1658405827818
107.9331141042627,44.960158188279614,41,1658405827859
107.9282679375467,44.96051649532942,41,1658405827900
107.97519466313685,45.059203492572614,40,1658405827941
108.13389086806188,45.30622039332909,40,1658405827981
108.34376054545419,45.551353907324085,42,1658405828024
108.5664223854028,45.808773897019805,40,1658405828064
108.5926638365284,45.86281261924684,40,1658405828105
108.64515348333998,45.92066321980082,42,1658405828147
108.691157393693,45.98152664551612,40,1658405828187
108.72527112488552,46.07331315851125,41,1658405828228
108.88791814341681,46.26177132157697,40,1658405828269
108.92153007626337,46.35221926595442,40,1658405828310
109.00141667812801,46.45791701235346,40,1658405828351
109.02921709827785,46.5253031030486,40,1658405828392
109.10832282280575,46.632537182094026,41,1658405828433
109.09361722507151,46.64473696694185,41,1658405828475
109.1177477440819,46.67126756027177,39,1658405828515
109.14624954391991,46.706003704979196,41,1658405828556
105.67740978260338,43.53588168195958,42,1658405828598
109.3517328277863,47.00184892949187,40,1658405828638
109.23179984308132,46.842072806465666,40,1658405828679
108.84118335465553,46.288479215892366,41,1658405828720
108.39895894607446,45.56278278604056,40,1658405828761
107.77444795891768,44.66843632103976,40,1658405828802
107.60577700625066,44.47175649904699,42,1658405828844
107.36860803938038,44.212629155584565,40,1658405828884
107.48289372770125,44.45753387062539,40,1658405828925
107.5845792523487,44.591007416900815,41,1658405828966
107.65788035658477,44.7112963902395,40,1658405829007
107.64584526940803,44.724879346765235,40,1658405829047
107.64474394440884,44.68566354223592,41,1658405829089
107.66162092572938,44.69238904380072,41,1658405829130
107.75068718593207,44.926271679253354,41,1658405829171
107.85023957397436,45.006606097135474,40,1658405829212
107.92770232324847,45.13354852893474,41,1658405829253
107.99292214268007,45.25445500360189,40,1658405829294
108.09185301761602,45.387307258013266,40,1658405829334
108.25245625971161,45.5677998857975,42,1658405829376
108.35048489659289,45.633387582914814,40,1658405829417
108.3789496040614,45.61738398079206,40,1658405829458
108.5242887842403,45.829655534009824,41,1658405829499
108.55882153981327,45.92754385984783,41,1658405829540
108.66311706081484,46.068390556331536,40,1658405829581
108.70247763071086,46.16871587086915,42,1658405829623
108.57347388095229,45.93272501152608,40,1658405829664
107.87204346989557,44.85614555358423,39,1658405829704
107.56436673460735,44.46156419523202,41,1658405829745
107.42328939976193,44.26289694292043,41,1658405829786
107.26687006246635,44.09029375659822,40,1658405829827
107.31506979314508,44.1961111508318,41,1658405829869
107.47643788127618,44.47551896551886,40,1658405829909
107.59930594404318,44.62452925623628,40,1658405829950
107.61091508900245,44.70127774849939,41,1658405829991
107.68710233508955,44.75611366657889,40,1658405830032
107.71103085977171,44.83532414744032,40,1658405830073
107.7922509734683,44.915137437065624,40,1658405830114
107.84625725421722,45.03561627354944,41,1658405830155
107.91411262473201,45.196886577165934,40,1658405830196
107.97655192979198,45.284493357320635,41,1658405830238
108.04509596163257,45.38573579670106,41,1658405830279
108.04349906301815,45.43337961022832,39,1658405830318
108.10453230254478,45.51397115202747,40,1658405830359
108.146776667768,45.583700202328565,40,1658405830400
108.17341575057293,45.638991823899026,41,1658405830442
108.39277562668462,45.87676989468408,41,1658405830484
108.42400252970185,46.018496343115835,41,1658405830525
108.40954090736955,45.9939291105793,40,1658405830565
108.21185362323615,45.67973765784919,40,1658405830606
107.79657071385054,45.09310994359914,40,1658405830647
107.45396495276839,44.58989015990423,41,1658405830688
107.07799438204228,44.131998966888965,40,1658405830729
106.972119008633,44.02109372315337,41,1658405830770
106.9891630397276,44.068132750140805,41,1658405830812
107.08385484960002,44.27735185073913,40,1658405830852
107.3313265316018,44.58937432885277,40,1658405830892
107.36443095068938,44.63843250135015,40,1658405830933
107.38558690120237,44.69777654703344,42,1658405830976
107.19680236593348,44.51238496240279,40,1658405831017
107.24181434642935,44.60716183928845,40,1658405831058
107.43684436565735,44.8359386345523,40,1658405831098
107.53124239312604,45.0172871546365,40,1658405831139
107.69308299078159,45.21485140619877,40,1658405831179
107.75998242752087,45.30774583960826,41,1658405831221
108.01177963110206,45.626815748340626,40,1658405831262
108.0082379793555,45.677342329533985,40,1658405831302
108.10873332815203,45.77454571549149,40,1658405831343
108.16225837654736,45.82369381169651,42,1658405831386
108.209472803925,45.9348889813864,40,1658405831426
108.33454896252454,46.12421259877027,41,1658405831467
108.37176734881331,46.19155471483991,41,1658405831509
108.27843233663043,46.08104297731156,39,1658405831549
107.9967512907237,45.59523585466424,41,1658405831590
107.31405323597835,44.63686342756548,42,1658405831633
107.15220178700673,44.43702623295169,39,1658405831672
107.0765431113386,44.33414958867793,41,1658405831713
107.06812514818364,44.34600721287544,41,1658405831755
107.27307868836914,44.70736317822665,40,1658405831795
107.36895319844757,44.82537991703282,41,1658405831836
107.38242722249709,44.85230663237337,41,1658405831878
107.3867112021282,44.8618594527143,39,1658405831918
107.41613127505218,44.87695344322027,41,1658405831959
107.51912112274243,45.0391331332799,41,1658405832000
107.63137682248941,45.1346719249855,40,1658405832040
107.68462299501073,45.24868974131646,42,1658405832083
107.72913101137345,45.35787728767896,40,1658405832124
107.82046663745041,45.44413717387801,39,1658405832164
107.86157900569242,45.547004813552235,41,1658405832205
107.93978555112386,45.662250097858546,40,1658405832246
108.00615645779624,45.72475898789235,42,1658405832288
108.13019869054477,45.877968694958305,39,1658405832328
108.24126546908502,45.990000977658184,42,1658405832371
108.33521011391088,46.13602772885691,39,1658405832410
108.31419591683158,46.12162482961477,40,1658405832451
108.09368704161409,45.86976925268083,41,1658405832492
107.3552349734992,44.69213227712086,40,1658405832533
107.06103394111017,44.34167453569665,41,1658405832574
106.80807719703802,44.00593265297506,42,1658405832616
106.7018640272886,43.899324032865565,41,1658405832657
106.69342467143241,43.90635124095609,39,1658405832697
106.99305789314985,44.34075034596709,43,1658405832741
107.05659082647554,44.437708220608755,38,1658405832779
107.04274682853071,44.4241124417436,41,1658405832821
107.09368797378079,44.42801059964338,40,1658405832861
107.19595337396208,44.61434847735371,40,1658405832902
107.26952922188457,44.74977170974102,41,1658405832943
107.35591135626635,44.85038818743768,40,1658405832984
107.40542295887701,44.928423594925945,41,1658405833025
107.57178042797068,45.15353883517363,40,1658405833066
107.69318078555108,45.26754624289298,41,1658405833108
107.64077615614451,45.24590901270696,39,1658405833147
107.67880195210432,45.29227476529504,41,1658405833189
107.74497383083434,45.37199144834873,40,1658405833230
107.82484426101314,45.51878500287028,42,1658405833272
107.89205075191848,45.65011946736815,40,1658405833312
107.9126456736883,45.64786412402651,40,1658405833353
107.8022311802689,45.5487045971067,41,1658405833394
107.17051420033454,44.590637962517285,41,1658405833435
106.83324753431896,44.07596675020733,40,1658405833476
106.57778546987714,43.78112136474839,41,1658405833517
106.3206272878607,43.488101546241005,40,1658405833558
106.3206272878607,43.488101546241005,41,1658405833599
106.45763190244213,43.72035998921086,40,1658405833640
106.53663880305317,43.86520502481322,41,1658405833681
106.55253018606169,43.931707323179424,42,1658405833723
106.56320969357114,43.964207224696736,40,1658405833763
106.64648703620213,44.043429449857236,40,1658405833804
106.73524888377358,44.14962549055,41,1658405833845
106.80977698292111,44.26528406689827,40,1658405833886
106.8709129059215,44.36377131479721,41,1658405833927
107.14236505928432,44.709245453732564,40,1658405833968
107.20268035985367,44.80719691913551,40,1658405834008
107.25041183120004,44.89311648565213,41,1658405834050
107.35922210193462,45.012344952614626,40,1658405834091
107.3660718720567,45.039994494337165,41,1658405834132
107.40927085740896,45.13613972849312,41,1658405834173
107.41239678347199,45.12482008694644,40,1658405834213
107.43428512542641,45.18691927149352,42,1658405834255
107.46155589751959,45.21694857348138,41,1658405834297
107.06566431885437,44.735531823664346,39,1658405834337
106.59510021250287,44.061108357044304,40,1658405834378
106.27928091423007,43.60091400343317,41,1658405834419
105.95447945150482,43.278172282915136,41,1658405834460
105.73300847000144,43.059027760091084,40,1658405834501
105.75274824153132,43.08666616833767,41,1658405834542
105.894750502129,43.33178427318499,41,1658405834584
106.09495109837655,43.58058191213456,40,1658405834624
106.23187658424263,43.77055500853314,42,1658405834666
106.19445627381788,43.78560300614514,39,1658405834705
106.29738119061801,43.901585163876206,41,1658405834747
106.33976463044019,43.97034055333609,40,1658405834788
106.46215123230479,44.118547548431344,40,1658405834828
106.52205514249505,44.237687544472045,41,1658405834870
106.56376925471966,44.32476185480737,41,1658405834911
106.60720391379823,44.4090051563668,41,1658405834952
106.69643482130067,44.51537616835934,40,1658405834993
106.70988714271806,44.53777549498936,41,1658405835034
106.75694876968913,44.56681437764713,41,1658405835075
106.80588690596329,44.674574652019224,40,1658405835116
106.84204688557969,44.74472962675128,40,1658405835156
106.93081493550181,44.85803073102447,41,1658405835198
106.99275109194741,44.99436582601022,40,1658405835239
106.78932362028468,44.73183100238506,40,1658405835280
106.43627855638056,44.20114242180312,41,1658405835321
105.85815040858,43.45050161545033,43,1658405835364
105.73957494451082,43.31293790290822,38,1658405835403
105.64514824503078,43.261379588116284,41,1658405835444
105.70820461361842,43.34974141438273,40,1658405835485
105.91672799808424,43.5907701055565,40,1658405835525
106.02125934438669,43.81960326937298,41,1658405835567
106.06119938731314,43.86230184219421,40,1658405835608
106.06459001380517,43.871099291980215,40,1658405835649
106.07968340307798,43.92712080892563,41,1658405835690
106.24765817096204,44.10777586477296,40,1658405835730
106.32670808552416,44.19178203402124,41,1658405835772
106.48544768452359,44.407321023696234,40,1658405835813
106.57766104172362,44.5051158076298,41,1658405835854
106.677394622093,44.64625583036824,40,1658405835895
106.74880869429103,44.752786507888594,42,1658405835937
106.7953348621682,44.807312674211175,40,1658405835978
106.84829655394674,44.89734047702375,39,1658405836017
106.92843376522933,44.964806649039275,42,1658405836060
106.89364143461853,44.995594985643876,39,1658405836099
107.00431655528138,45.18403462332609,42,1658405836141
107.09940930604205,45.25311388002419,40,1658405836182
106.89950262512264,45.064480662996786,44,1658405836226
106.10396451194748,43.88934293510593,38,1658405836265
106.10396451194748,43.88934293510593,40,1658405836305
105.61065824569812,43.29223128561558,41,1658405836346
105.5295328088107,43.20073352205175,40,1658405836387
105.64848755962612,43.36937955361674,41,1658405836428
105.85385749316924,43.639502632799896,40,1658405836469
106.01030034114115,43.852579142774495,40,1658405836510
106.05836279407504,43.9547834442885,41,1658405836552
106.06365370571717,43.92030483324959,40,1658405836592
106.28513791117064,44.201457195768945,42,1658405836635
106.36741500361882,44.271835652277716,39,1658405836674
106.41794186602624,44.37561247474585,41,1658405836716
106.54902534049006,44.568745683202664,41,1658405836757
106.82267229554321,44.862842829047686,40,1658405836797
106.92287004340938,45.025412145626696,40,1658405836838
106.96502290132611,45.13331139943172,41,1658405836879
107.10009444012218,45.21841569230986,40,1658405836920
107.16210624584949,45.37089967517895,41,1658405836961
107.19844275390744,45.45264262482869,40,1658405837002
107.3160908792384,45.56249310124233,40,1658405837043
107.39449335703182,45.677253653686094,41,1658405837084
107.26513905967875,45.523697385397966,41,1658405837125
106.89920835205123,45.05607615498447,40,1658405837166
106.41615465416038,44.339416320011864,40,1658405837207
106.02964959448548,43.81755682585138,41,1658405837249
105.7751018367585,43.50983272370393,40,1658405837289
105.58124779182617,43.30774895863895,41,1658405837331
105.49169514539494,43.19985173317453,40,1658405837371
105.76926977671945,43.62437609759644,41,1658405837412
105.9622893262466,43.883629232474966,40,1658405837453
106.2353393707491,44.183143339647955,41,1658405837494
106.22234439834585,44.18923760351693,41,1658405837535
106.25632748580966,44.275946466793336,41,1658405837576
106.35261350800153,44.36456357395585,40,1658405837617
106.42421402270406,44.45889486857814,41,1658405837658
106.72833699282529,44.82192284113381,40,1658405837698
106.84422068283027,44.97204974533402,42,1658405837741
106.8963163730528,45.089744600164394,41,1658405837782
107.01031296082743,45.19645847457352,39,1658405837822
107.13937330623031,45.381839895955494,40,1658405837863
107.17944833565002,45.438650330809,40,1658405837903
107.09901927547213,45.3846117176613,41,1658405837945
107.1471953700102,45.44463132989096,41,1658405837986
107.31357602492903,45.65651941420091,40,1658405838027
107.37149307171899,45.74379703614018,41,1658405838068
107.28106877478092,45.63967182883144,40,1658405838109
106.95122120930614,45.18937521378491,42,1658405838151
106.16406622154602,44.033140169265856,40,1658405838192
105.92239406801502,43.68089485468011,39,1658405838232
105.73702543692815,43.43210628638436,41,1658405838274
105.62444268161278,43.39193634304214,40,1658405838314
105.66070203854588,43.40766264484687,40,1658405838355
105.86675164541504,43.62710057606299,40,1658405838395
106.16204136582331,44.0596391184208,41,1658405838437
106.20120170840494,44.099958065993974,40,1658405838477
106.29569669274429,44.21858140562812,41,1658405838519
106.37628450102056,44.33779862898625,41,1658405838560
106.41385662305657,44.4167771933914,40,1658405838600
106.49687814644426,44.52879121372739,41,1658405838642
106.63132060832476,44.66891646407023,41,1658405838684
106.70550812548288,44.80529169780548,40,1658405838724
106.98854651807068,45.13228346443274,40,1658405838765
107.06188599475246,45.223590567180075,41,1658405838806
107.09002359138043,45.287332332523036,41,1658405838847
107.1596896471371,45.39006450009098,40,1658405838887
107.19945738638211,45.45198371676002,41,1658405838929
107.34691993253944,45.58694982708978,42,1658405838971
107.12750479681006,45.52278776023069,39,1658405839011
107.21677209170758,45.59679084070969,41,1658405839052
107.18646772010663,45.58778267886863,41,1658405839093
106.47820087715229,44.51031629396358,41,1658405839135
106.0856841035764,44.00000801291138,40,1658405839175
105.83370392573431,43.678769003351036,40,1658405839216
105.67607693844565,43.509675451338445,41,1658405839258
105.63371699810978,43.44086069702835,39,1658405839297
105.83597952379944,43.64636006730929,41,1658405839339
105.9874451961233,43.87943377589858,41,1658405839380
106.1149605821305,44.03965681814188,42,1658405839422
106.14361206814465,44.105696249909975,39,1658405839461
106.19990993044797,44.14475301992386,43,1658405839505
106.28631011475181,44.26991135319753,39,1658405839544
106.36028109625522,44.341574373414026,42,1658405839586
106.4706550589018,44.5124898842535,40,1658405839626
106.72392318125418,44.82809295446337,40,1658405839667
106.84872738927663,45.01288715427155,42,1658405839709
106.92016414917214,45.098613375729805,39,1658405839749
107.01702805438725,45.209702375563595,41,1658405839791
107.23557346260645,45.50547886785788,39,1658405839831
107.28390221343653,45.57478199372799,41,1658405839872
107.35952573024366,45.668180035768664,41,1658405839913
107.45254223946262,45.81977046400592,41,1658405839955
107.54360313304329,45.93142877965894,40,1658405839995
107.57829992724419,45.94296272272467,40,1658405840036
107.24277076239508,45.52412423497804,41,1658405840077
106.80862113006685,44.804571573059796,40,1658405840118
106.14369614388829,43.87517206277966,41,1658405840159
105.97863953705394,43.72019332006087,41,1658405840201
105.94451464461423,43.626464637499325,39,1658405840240
105.92153853019175,43.654412024458146,41,1658405840282
106.0758672914659,43.86756292383026,41,1658405840323
106.27949523018174,44.160081612177116,40,1658405840364
106.31089446977245,44.17711777456487,41,1658405840405
106.33847415188768,44.23013164824686,40,1658405840445
106.42014180734958,44.299974283409625,42,1658405840488
106.52212031007213,44.46753345334757,40,1658405840528
106.62513693356544,44.59386940795269,40,1658405840569
106.74777508956123,44.756893009980644,41,1658405840610
106.86457562100145,44.86722022616786,40,1658405840651
106.91841684821708,44.991285789261454,41,1658405840692
107.08263710752016,45.232360179672,41,1658405840733
107.15961850270622,45.29621996698319,40,1658405840774
107.19761348256952,45.34212283225931,40,1658405840815
107.19120383078825,45.36629672756289,41,1658405840856
107.27220791814784,45.42952628968885,40,1658405840897
107.40231675243007,45.622402143044006,41,1658405840938
107.4046745269788,45.666966135448604,42,1658405840981
107.21472485754026,45.41664952125669,38,1658405841020
106.34534576434822,44.0945040954406,43,1658405841063
105.9937599822207,43.63188533495426,39,1658405841102
105.79938303379208,43.34216244510467,40,1658405841143
105.63852476186173,43.13420606757621,41,1658405841184
105.60288607335423,43.150640236745375,39,1658405841224
105.80359033126405,43.412345860152094,41,1658405841266
105.95836416231543,43.64516942208736,42,1658405841308
106.06287246249906,43.71941600990598,39,1658405841347
106.1125078903558,43.809611861163866,41,1658405841389
106.15138933095318,43.82015334901937,41,1658405841430
106.21726811733379,43.90103888204263,40,1658405841470
106.27666600441796,43.98803169070014,43,1658405841514
106.33821791895082,44.111964422642004,38,1658405841553
106.46179591774035,44.22756092037856,43,1658405841596
106.60192236281921,44.436504877264085,38,1658405841634
106.78599249682065,44.64779297987119,41,1658405841676
106.86508855075436,44.76235521993572,41,1658405841717
106.95095978078587,44.89270400825471,41,1658405841759
106.95095978078587,44.89270400825471,40,1658405841799
107.08314468333322,45.049210366928826,41,1658405841840
107.14571953201636,45.147665349495284,40,1658405841881
107.18496674785911,45.208705213257296,41,1658405841922
106.84421937969574,44.74353654238814,41,1658405841964
106.4096604898836,44.134874317816895,39,1658405842003
105.99768914846686,43.5444134407544,41,1658405842045
105.72469879891895,43.19109314512425,40,1658405842086
105.50289386944212,42.99116372790314,41,1658405842127
105.42625515184045,42.86116481374523,40,1658405842168
105.50573781286079,43.02083943826361,42,1658405842210
105.70059198997154,43.253541378432274,39,1658405842250
105.80180590504744,43.35977591513834,41,1658405842291
105.8118627702707,43.397335962831846,41,1658405842332
105.8724847299626,43.45028900749434,42,1658405842374
105.91536133787389,43.477984265323556,39,1658405842414
105.98402143549475,43.55886483360361,41,1658405842455
106.15842192376158,43.750083591640625,41,1658405842496
106.3844093487678,44.018856536998484,40,1658405842537
106.47396591002803,44.157865408624836,41,1658405842578
106.5470898032284,44.2645795978845,41,1658405842620
106.74429565935151,44.47247036670762,39,1658405842659
106.79597728408999,44.57893750946599,41,1658405842701
106.94311004057181,44.74775267737155,40,1658405842742
107.00053451675444,44.794372755662444,40,1658405842783
107.1111501598213,44.92553070255391,40,1658405842823
107.3009158662037,45.18552999351037,41,1658405842865
107.24681199380194,45.07432339310562,40,1658405842906
106.85692758688646,44.52381571488117,41,1658405842947
106.4594476689931,43.875645047593316,40,1658405842988
105.92578586268252,43.20443108200579,41,1658405843030
105.81068652571787,43.06538724188207,40,1658405843070
105.77743478562809,43.01770805764539,41,1658405843111
105.85102694189084,43.15784638528323,40,1658405843152
106.01942738309157,43.397206944834274,40,1658405843193
106.1525570432471,43.5660417615041,41,1658405843235
106.26843596255219,43.729202638542965,41,1658405843276
106.32443111345401,43.73887208717443,40,1658405843316
106.3971394542474,43.83859604704532,40,1658405843357
106.48152445342271,43.98293441715105,43,1658405843400
106.56204740846113,44.11261521999482,39,1658405843440
106.67573074717927,44.20090136193103,40,1658405843480
106.73083759641094,44.3154096517564,40,1658405843521
106.7708549562787,44.35094907163449,41,1658405843562
106.91932713193216,44.55533762421073,40,1658405843603
107.0129141187216,44.63160065437442,41,1658405843644
107.06473206903172,44.661533843732656,40,1658405843685
107.2013605700995,44.902703510513795,43,1658405843729
107.30305365482604,45.02024936085097,37,1658405843766
107.20151546237099,44.925920266121196,41,1658405843808
107.29309400859233,44.97107174834334,40,1658405843849
106.48530925759246,43.83429829798536,40,1658405843889
106.10637923106725,43.3502755493396,41,1658405843931
105.83814857001755,43.05924049273,40,1658405843972
105.70369641516271,42.84536877770485,41,1658405844013
105.58753941685222,42.713754464143875,40,1658405844054
105.80570852336109,43.01052485794375,40,1658405844095
105.94913581055715,43.2186409238358,43,1658405844138
106.07363327061466,43.35116575449794,39,1658405844177
106.16667723450098,43.45535444838833,40,1658405844218
106.32772274207446,43.60428047310184,40,1658405844258
106.4332542422573,43.717673989145986,41,1658405844300
106.50437751335755,43.81493948819677,41,1658405844341
106.65522399298862,43.971082554626314,41,1658405844382
106.95885136711462,44.339849276056086,40,1658405844423
107.02590091423554,44.42844325201656,40,1658405844464
107.1328131948016,44.59400306724112,41,1658405844505
107.23545388178786,44.69656088989091,40,1658405844546
107.28834928867775,44.7769687279473,41,1658405844587
107.39213693817715,44.92817631776457,41,1658405844628
107.44889952883705,44.99892503265975,40,1658405844669
107.51339191945374,45.12537504423681,40,1658405844710
107.62392503202398,45.24482778986057,41,1658405844751
107.62231528212271,45.232799843731414,40,1658405844792
106.9949376526597,44.2890309385372,41,1658405844834
106.66367928011363,43.725794099901314,40,1658405844874
106.33657459443117,43.31538009132134,40,1658405844915
106.16292118236856,43.09014138497477,41,1658405844956
106.02207061090189,42.94552978466882,40,1658405844997
106.12414589348845,43.083006886442234,40,1658405845037
106.34194669003153,43.3562553678374,41,1658405845079
106.49274772780541,43.537841928294746,41,1658405845121
106.65015231685993,43.742970168924195,40,1658405845161
106.72853909125513,43.798313577375914,41,1658405845202
106.7611660120815,43.826232462595826,41,1658405845243
106.82173633875561,43.93817685925906,40,1658405845284
106.96263125646993,44.13139285372974,41,1658405845325
107.11513629301868,44.33546506109963,41,1658405845366
107.04908539861333,44.30874236946369,40,1658405845407
107.15743740546088,44.454491570761306,41,1658405845448
107.2233147601907,44.515228818669264,40,1658405845489
107.32121688620907,44.722848838078235,41,1658405845530
107.3896231862592,44.747954682224865,41,1658405845571
107.44543414182607,44.8242894442239,41,1658405845612
107.53736494806179,44.92587529205608,41,1658405845653
107.56112730122095,45.001719751588105,40,1658405845694
107.52675384341609,44.9386937550176,41,1658405845735
107.12948481595663,44.34484808065513,41,1658405845776
106.66968094702713,43.70570865711208,41,1658405845818
106.13529515776503,42.94456737291841,40,1658405845858
105.94462129920646,42.755953256567025,41,1658405845899
106.0364692500944,42.79205943397168,40,1658405845940
106.1010269808865,42.87508122898874,40,1658405845981
106.2303274204325,43.11425604190189,41,1658405846022
106.33301022514695,43.27860237894543,40,1658405846063
106.48396768992734,43.427766817990765,41,1658405846105
106.52184001407642,43.430549908976616,39,1658405846145
106.49537604671235,43.43427403833735,41,1658405846186
106.56705859751395,43.54625029606797,41,1658405846228
106.74568124502213,43.738151031427655,39,1658405846268
106.8105470815077,43.85036319259095,41,1658405846309
106.90334942024583,43.96995142871943,41,1658405846351
107.042762623145,44.140012545647444,41,1658405846392
107.21007812160906,44.38805344055372,40,1658405846432
107.3021727304639,44.44679672373271,40,1658405846473
107.36551730269667,44.56877958192773,40,1658405846514
107.41889825859448,44.63491444142904,41,1658405846555
107.47809859346921,44.69430787713569,40,1658405846596
107.66291223980716,44.98880279600886,41,1658405846637
107.68829312029067,44.97834053739393,40,1658405846678
107.50896156590721,44.72954780176405,40,1658405846719
107.03001600553023,44.02639367812584,41,1658405846760
106.43142584855991,43.19152171851557,40,1658405846801
106.33357637792489,43.034712127198354,41,1658405846842
106.22816845205926,42.922922625182935,40,1658405846883
106.23757167443324,42.97063342791889,42,1658405846926
106.56570302462848,43.392234829463604,40,1658405846966
106.80730186794142,43.66641259512471,39,1658405847006
106.87056140038914,43.67109820855413,41,1658405847047
106.86799332610656,43.69053438041522,41,1658405847089
106.95650020284546,43.75838871683398,40,1658405847129
107.03656507846341,43.908999763049735,41,1658405847171
107.1036570420535,44.01849104532764,40,1658405847211
107.19379834890174,44.10795206188082,40,1658405847252
107.1873564090211,44.18993180563085,41,1658405847293
107.33634328584947,44.41742785671765,40,1658405847334
107.45112608998068,44.54682195713141,41,1658405847375
107.53626207272919,44.661125414197365,41,1658405847416
107.63521817008314,44.746205997741065,40,1658405847457
107.75821936348711,44.92473736640402,41,1658405847498
107.87179618901484,45.0477853813924,41,1658405847540
107.9348053114312,45.13918957479847,39,1658405847580
108.05999562095258,45.33445698891741,42,1658405847622
108.05999562095258,45.33445698891741,41,1658405847664
107.48636011028935,44.420191610732644,39,1658405847703
107.08888853137182,43.882344975699446,40,1658405847744
106.8122475666006,43.49789862846447,40,1658405847785
106.59281943919979,43.31469984182602,41,1658405847826
106.43967726379867,43.16046342837728,41,1658405847867
106.5746682795288,43.31829546052269,41,1658405847909
106.77701447235495,43.61003808983548,40,1658405847949
106.92774588246112,43.80171612500668,41,1658405847991
107.01515089945104,43.91473918569907,40,1658405848031
107.13897014326545,43.9855659372287,41,1658405848073
107.17401647083364,44.059057827743075,41,1658405848114
107.26476771279579,44.15661346837427,40,1658405848154
107.35605040712863,44.31402876025921,41,1658405848196
107.42560627460455,44.39045339334816,40,1658405848236
107.6220656893056,44.68587254702909,41,1658405848277
107.7354561940632,44.812899595213416,40,1658405848318
107.77578855202933,44.9137461292133,40,1658405848358
107.911515611911,45.05435582814094,41,1658405848400
107.95925546258525,45.1721269138612,41,1658405848441
108.013866261776,45.21985045004651,41,1658405848482
108.04893715527805,45.33814780210961,41,1658405848524
108.27729058258626,45.58347560523507,40,1658405848564
108.19711339393064,45.57104018773095,40,1658405848605
108.0492013575793,45.35069684201408,41,1658405848646
107.66161926925997,44.75629451400331,40,1658405848687
106.93173654051589,43.65585128878887,41,1658405848728
106.7735218741455,43.46637278503849,41,1658405848769
106.61203657308238,43.31936079767382,43,1658405848812
106.57284621127286,43.24525580614059,39,1658405848851
106.86195934125345,43.66031692201952,40,1658405848891
107.00964295402656,43.87692828309482,41,1658405848933
107.12407395591902,44.03596557716266,41,1658405848974
107.1454639603109,44.05528659065116,40,1658405849015
107.23381174985843,44.17731678929056,41,1658405849057
107.30137953285998,44.29076895465092,40,1658405849097
107.50332688717481,44.47705664418707,40,1658405849138
107.6027043778131,44.614419880467494,40,1658405849178
107.698549883569,44.78144597756476,41,1658405849220
107.79046884969335,44.89262915733038,41,1658405849261
107.90051220714565,45.06311307517628,41,1658405849303
108.008396009933,45.16454168617352,40,1658405849343
108.04947310130962,45.27971437876286,40,1658405849384
108.15003344372849,45.425800647965254,40,1658405849425
108.19561176960713,45.525254105951966,41,1658405849466
108.26670651213249,45.59802238902064,40,1658405849507
108.39730151155464,45.76247440097426,41,1658405849548
108.4475241278256,45.89251202777555,41,1658405849589
108.115097913113,45.33742205645715,41,1658405849631
107.77450955448876,44.76138866546454,40,1658405849671
107.37845871840739,44.166627824632755,41,1658405849712
107.15373646883165,43.842789730030056,41,1658405849754
106.90275505051943,43.52113340723209,39,1658405849794
106.92748036956533,43.53361050953005,40,1658405849834
107.0831756581253,43.827253407727085,42,1658405849877
107.25984314031075,44.038228471051745,39,1658405849916
107.21365943638938,44.04218661648781,42,1658405849959
107.30482716428162,44.15932196889104,40,1658405849999
107.33232394323693,44.19826681517785,40,1658405850040
107.36726157690737,44.268183071586456,40,1658405850081
107.41801437225473,44.3377036424157,41,1658405850122
107.56631076852318,44.54869344211689,41,1658405850163
107.63550708548456,44.66279938858114,40,1658405850204
107.69853326529773,44.77704315840686,40,1658405850245
107.83676392634737,44.938087463712705,40,1658405850286
107.94937568293335,45.14288193276868,40,1658405850326
108.03882695953723,45.274806143700594,41,1658405850368
108.12198891152218,45.34934292519277,41,1658405850409
108.15511745741804,45.42476055328088,40,1658405850450
108.3392795415815,45.62992475857297,42,1658405850492
108.3785027157283,45.748383640754334,39,1658405850531
108.40368847563843,45.75913270782146,41,1658405850573
108.25126557454291,45.48339199076396,40,1658405850614
107.81714484718299,44.804171189439195,41,1658405850655
107.40486335975004,44.205528901803014,40,1658405850696
107.16602879571246,43.775956585371794,40,1658405850737
107.05729552825812,43.63631793611272,41,1658405850778
107.08589996002775,43.726852616683544,41,1658405850820
107.39753274485776,44.162906704219345,40,1658405850860
107.4843362097917,44.313166727217535,40,1658405850901
107.53543336530305,44.347206642575216,40,1658405850942
107.53360083704433,44.34185242979031,41,1658405850983
107.525528916633,44.348961859461106,40,1658405851024
107.66951315497852,44.44714457978429,40,1658405851064
107.73186046206445,44.592322895071206,41,1658405851106
107.83925717364872,44.736647735105336,41,1658405851148
107.91281002021265,44.87972612985969,41,1658405851189
108.132669787272,45.172191809724076,39,1658405851229
108.21208857265981,45.290001039810235,41,1658405851270
108.28804605609037,45.43174153998437,41,1658405851311
108.36821507972485,45.51486219434555,41,1658405851352
108.423622573925,45.58519357085196,42,1658405851395
108.50312674565089,45.72797969720263,39,1658405851434
108.62160578759921,45.84387481269561,41,1658405851475
108.7225200576919,46.022985671023115,40,1658405851516
108.74610592276167,46.0088066373713,40,1658405851557
108.20254936007717,45.185943407382105,41,1658405851598
107.8246321244124,44.54359751716729,40,1658405851639
107.54607319723226,44.180202957826616,40,1658405851679
107.40036062645675,43.957783487224035,42,1658405851722
107.26075633581763,43.81830793047291,39,1658405851762
107.38398981235679,44.056040951649265,41,1658405851803
107.4719212010865,44.24226991252672,40,1658405851844
107.5542074219191,44.36264286680073,40,1658405851885
107.58599736789205,44.4503218175374,41,1658405851926
107.62675020732149,44.44485919119197,40,1658405851966
107.68420147795729,44.52315610297987,41,1658405852008
107.70174749932454,44.59296808285564,40,1658405852049
107.7561595252318,44.68196365507051,42,1658405852091
107.98084183032654,44.95530736981118,40,1658405852131
107.9843856888906,45.03770073474592,40,1658405852172
108.07355533686314,45.14539881388743,40,1658405852213
108.19906954737047,45.312935390114944,41,1658405852254
108.26569734719385,45.414523689213524,41,1658405852295
108.4475489216299,45.639629850001526,40,1658405852336
108.49751978065291,45.69281905622338,41,1658405852377
108.51627133776816,45.7369863075129,41,1658405852418
108.57350509887414,45.81650952862706,40,1658405852459
108.59518654660604,45.92559203758231,41,1658405852501
108.43134134555913,45.671302031552756,42,1658405852543
108.02024163972914,45.023010137170814,38,1658405852582
107.57882089248471,44.39924708633836,40,1658405852623
107.31148858382272,44.025368988003464,40,1658405852663
107.01061425448086,43.68323544757299,42,1658405852706
106.96754369925816,43.659346241655065,39,1658405852745
107.07797997296205,43.81973126388449,42,1658405852788
107.40314785690492,44.286966241878766,40,1658405852828
107.55696475046551,44.40917896594712,40,1658405852869
107.55579629589693,44.445021504164785,40,1658405852910
107.64876089132906,44.5369103589418,41,1658405852951
107.71321631504077,44.6179080872553,46,1658405852997
107.86336111624274,44.847527566875335,35,1658405853032
108.00757460114517,45.010729300250794,41,1658405853074
108.06655181110943,45.169089071714126,42,1658405853116
108.22498461060184,45.37027077070286,39,1658405853155
108.31927393671276,45.52106502492857,41,1658405853197
108.370173931328,45.597408459806765,40,1658405853238
108.39367828453652,45.667744202141236,41,1658405853280
108.46923911762292,45.769373647538046,40,1658405853320
108.50383820589678,45.82548979249228,40,1658405853361
108.43965641907181,45.793243258575686,41,1658405853402
108.5004225526435,45.89944320589831,40,1658405853443
108.52804830766809,45.96685698099631,41,1658405853484
108.42048937601186,45.75824194729763,41,1658405853526
108.01245925152944,45.1597315381975,39,1658405853566
107.3293195915204,44.153800902844516,41,1658405853607
107.1077250797818,43.86808766620952,40,1658405853648
107.03055789484534,43.71033306741497,41,1658405853689
107.07526004298614,43.81012407090311,40,1658405853730
107.1935695930124,44.023448478934306,41,1658405853772
107.3227607076085,44.21917651620924,40,1658405853812
107.42123832909601,44.33551152726681,40,1658405853852
107.40681675805905,44.29912233094153,41,1658405853894
107.57662610571452,44.504664581200025,41,1658405853935
107.60944897755314,44.599721039167264,40,1658405853976
107.70171596401167,44.68247096661354,41,1658405854017
107.76041519432471,44.783082326151266,41,1658405854059
107.93356787448892,45.05186578767151,39,1658405854098
107.98856627329161,45.146403987467984,42,1658405854141
108.06967244291297,45.295729869007815,39,1658405854181
107.97125788153937,45.18700734790174,41,1658405854222
108.06534984363742,45.318138048874744,41,1658405854263
108.14779405978186,45.472011075440186,40,1658405854304
108.19709292729249,45.55170038920379,40,1658405854345
108.29601318692107,45.63878637983701,41,1658405854386
108.36598656269257,45.84456475870186,41,1658405854427
108.40366697239295,45.8030738273116,40,1658405854468
108.02683340311864,45.24530477852052,43,1658405854511
107.6170101706208,44.58972855392183,38,1658405854550
107.3676410220101,44.199073963283666,41,1658405854591
106.97168558263235,43.729776828628474,41,1658405854632
106.86114675837916,43.583863931277044,40,1658405854673
106.88876470239563,43.65664897257239,40,1658405854714
107.11948629474131,44.07641627937579,42,1658405854756
107.20795857720907,44.15850698569371,39,1658405854796
107.26000396976212,44.231039563823614,40,1658405854836
107.30276675160269,44.306482255811616,41,1658405854878
107.36680867442021,44.400013487666435,41,1658405854919
107.40816098896079,44.47035867308484,41,1658405854960
107.41688917205414,44.5098265093102,40,1658405855001
107.50325451861806,44.66572665276075,41,1658405855042
107.54362189879078,44.73023163692444,40,1658405855083
107.69994613507185,44.950076798213736,41,1658405855124
107.79299883602926,45.03437559479037,40,1658405855164
107.79202508528863,45.1116261783732,41,1658405855206
107.8890082295166,45.242319103852175,41,1658405855247
108.15311387639218,45.47785507629856,40,1658405855288
108.25387771125224,45.607538166396324,41,1658405855329
108.35658338440072,45.731926250968556,41,1658405855371
108.36022197504604,45.77823087677375,40,1658405855411
108.22626462677795,45.61890370388288,40,1658405855452
107.9084053929763,45.13866516782195,41,1658405855493
107.15449475477328,43.98635976726229,40,1658405855534
106.95497477283482,43.726463591874165,42,1658405855576
106.81263442088607,43.540031883301815,39,1658405855615
106.66692541838654,43.44097041779253,41,1658405855657
106.91649606319771,43.77134007468614,40,1658405855698
106.95838596972737,43.90592762923761,41,1658405855739
107.00476970903651,43.94053221779906,40,1658405855780
106.87972396470826,43.86840535011545,40,1658405855821
106.85852134007393,43.862889762418845,41,1658405855862
106.96298725362857,44.0243940370325,40,1658405855902
107.05227489342985,44.12597576313322,41,1658405855944
107.13633479597723,44.23438486789598,40,1658405855985
107.23695478553856,44.378038596888715,40,1658405856025
107.46222055987516,44.69511013072762,41,1658405856067
107.56492528831046,44.76641303919882,40,1658405856107
107.65119211715853,44.94606705506002,41,1658405856149
107.76487050444024,45.06650397145918,40,1658405856190
107.86404232193007,45.18196062577495,40,1658405856231
107.94557327915709,45.32599188560284,41,1658405856272
108.01994660776757,45.41024110273026,41,1658405856313
108.2476985532121,45.72249759691922,40,1658405856354
108.1038018483419,45.565975722333434,41,1658405856395
107.71638573588882,44.93999721811256,40,1658405856435
107.32372132018952,44.39087525899981,42,1658405856478
107.03493711282363,43.9455965134355,40,1658405856518
106.70646848679598,43.61700840221617,40,1658405856558
106.53724859642614,43.35973453248699,41,1658405856600
106.52596625305455,43.43069464612444,41,1658405856642
106.62752070230778,43.567650914564545,40,1658405856682
106.72032752792495,43.769099892917176,40,1658405856723
106.61540466039969,43.6625127335447,41,1658405856764
106.46304112635585,43.492834491571266,40,1658405856805
106.2944235377766,43.443599086675285,41,1658405856846
106.08618197013868,43.2347230982938,41,1658405856887
105.99603331005795,43.23675715068315,40,1658405856928
106.1228852571573,43.40917164542128,41,1658405856969
106.27675288378276,43.581512584967925,41,1658405857010
106.40371097886936,43.74387249924134,40,1658405857051
106.71244741955627,44.12348619394218,41,1658405857092
106.80207049798389,44.21512314502547,41,1658405857133
106.75248339766608,44.22082724958312,40,1658405857174
106.80602884250726,44.25962341555761,41,1658405857215
106.86088476119983,44.372161364748955,40,1658405857256
106.9763989642471,44.5026915631351,40,1658405857297
107.0448271222341,44.64569326310172,41,1658405857338
107.03114405614679,44.521933474119024,41,1658405857379
106.74985433648447,44.10610759285047,40,1658405857420
106.45957235316189,43.63002598835754,41,1658405857461
106.01339900548084,43.0150181466272,40,1658405857502
105.89813504664835,42.87096366644495,40,1658405857542
105.88641629664835,42.85924491644495,42,1658405857585
105.93161700717036,42.91776958436998,39,1658405857625
106.31570024711743,43.41281218703567,41,1658405857666
106.38823931707748,43.51238537346569,42,1658405857708
106.4088971294147,43.57740125889866,39,1658405857748
106.47293240702612,43.63185511055384,41,1658405857790
106.57821762563532,43.73842766804256,40,1658405857830
106.65654477526812,43.87725049631668,41,1658405857871
106.75045003274283,43.96947296455181,40,1658405857912
106.81861082638596,44.10053875985205,42,1658405857954
106.98162487480687,44.39229594492132,39,1658405857994
107.1197932651512,44.4853982257862,41,1658405858035
107.1447629105603,44.60947446752603,41,1658405858077
107.20610548804439,44.69099164456332,40,1658405858117
107.29834017521341,44.79101473195347,40,1658405858158
107.36214517712051,44.87071836902262,41,1658405858200
107.45512021458347,45.054505915739696,41,1658405858241
107.52202313075645,45.173536807837074,40,1658405858281
107.60172699063884,45.220045822020246,40,1658405858322
107.13614918458973,44.56213033867434,40,1658405858363
106.76740910543458,43.96944841273012,41,1658405858404
106.48409297666444,43.568212042595725,40,1658405858445
106.31607375571849,43.40123194144957,41,1658405858486
106.22175064339513,43.27194832985099,41,1658405858527
106.25768009637841,43.35682440634473,41,1658405858568
106.40928285825044,43.58558463665171,40,1658405858609
106.56614684484782,43.82688880504956,41,1658405858650
106.61636926546208,43.921984234311374,41,1658405858692
106.65099723259391,43.92378506001538,40,1658405858732
106.7279123981636,43.95358362259452,40,1658405858772
106.79097992799836,44.043878369731175,41,1658405858814
106.86660388766092,44.16924872839106,40,1658405858855
107.0766881119273,44.46225607389108,40,1658405858895
107.1723559047897,44.59458527873125,43,1658405858939
107.24238015706248,44.6962414465849,39,1658405858978
107.27311300254945,44.80154783405151,42,1658405859021
107.29852967667614,44.85401712204064,38,1658405859060
107.30968872276947,44.886610360478,41,1658405859101
107.36573423407287,44.94408119324515,40,1658405859142
107.39737623545153,45.020265119855246,41,1658405859183
107.44725366857966,45.12438538936279,41,1658405859225
107.62663115921805,45.341757874339436,40,1658405859265
107.45500135942393,45.07775226124347,41,1658405859306
107.06003087984601,44.48175456693199,39,1658405859346
106.66350869258201,43.89735451889798,41,1658405859388
106.39661933945217,43.52096774536854,41,1658405859429
106.10410059947577,43.174886459307785,41,1658405859470
106.11923680704302,43.13512691235967,40,1658405859511
105.96060049713753,43.1099232773166,40,1658405859552
106.13246230302764,43.32791768464515,40,1658405859593
106.327804342778,43.617005740913385,41,1658405859634
106.34806396257608,43.67055231944329,41,1658405859675
106.36425921532788,43.6949036766876,40,1658405859716
106.43179026743314,43.71939174066535,41,1658405859758
106.57847815352449,43.91705824638575,40,1658405859798
106.654806415179,44.03919727475878,45,1658405859843
106.75344779147349,44.164100364195555,36,1658405859880
106.84805494541416,44.2988817398735,40,1658405859921
106.87587334156376,44.34761939281538,41,1658405859962
107.00356760626636,44.49802594004525,40,1658405860003
107.05884695110603,44.614775716382134,40,1658405860044
107.14662887847828,44.68563838618488,40,1658405860085
107.19147139994425,44.772319421235295,41,1658405860126
107.231258292181,44.81164649616802,40,1658405860167
107.34648754619803,45.01874587663139,41,1658405860208
107.38226167151436,45.07543925873991,41,1658405860249
107.23886289797315,44.83774291227375,42,1658405860291
106.4431583331841,43.76768793486616,39,1658405860331
106.17157855775054,43.35720429433212,41,1658405860372
106.01463378969834,43.151018814138176,40,1658405860413
105.89550159556836,43.025845375970704,41,1658405860455
105.9339889541123,43.09097140062454,41,1658405860496
106.09119544501755,43.31229661642621,40,1658405860536
106.20284061589877,43.49493852651302,40,1658405860577
106.39068855858062,43.597288670202204,40,1658405860618
106.39018845027431,43.65369818906701,41,1658405860659
106.41422558747195,43.66619514590042,41,1658405860701
106.39265206287922,43.688538374491905,39,1658405860740
106.48106184982305,43.78677780647158,42,1658405860782
106.54650574633831,43.888874240197964,40,1658405860823
106.54545795497336,43.93743486524608,40,1658405860864
106.58781610218529,44.024362683778136,41,1658405860905
106.60665049226816,44.05290723370518,40,1658405860945
106.67845871298186,44.1210465386123,41,1658405860987
106.78322206911042,44.31739480732261,41,1658405861029
106.83536678743803,44.37341079098501,40,1658405861069
106.93854119566646,44.44418088030478,41,1658405861110
106.90809553959741,44.51686956587787,40,1658405861150
107.02890797462715,44.626941969959844,41,1658405861192
106.95177570881293,44.50867922694489,40,1658405861232
106.95177570881293,44.50867922694489,42,1658405861275
106.34456205897561,43.509480136989325,40,1658405861315
105.95447821856254,43.07933231133449,40,1658405861356
105.95574501011038,43.03882495624185,41,1658405861397
105.95628233625064,43.03847964255885,40,1658405861437
106.07869039354864,43.19416540989251,41,1658405861479
106.25019556003792,43.43873630649086,40,1658405861520
106.30558676081785,43.5584023382143,41,1658405861561
106.34760133354439,43.60692722097861,40,1658405861602
106.3654476309469,43.64374326946162,40,1658405861643
106.26771953221981,43.596304251372324,41,1658405861684
106.44492749139789,43.765797425969474,41,1658405861725
106.50418562874904,43.878792712844444,40,1658405861766
106.57519804762438,44.0153306806875,42,1658405861808
106.63177746463668,44.03543253785773,40,1658405861848
106.66927128093613,44.13343128149475,41,1658405861890
106.7084990375862,44.230911122443146,40,1658405861930
106.74690633762168,44.25468862880362,41,1658405861971
106.76888316149456,44.32506939454654,40,1658405862012
106.79535737896276,44.39184656764003,41,1658405862053
106.94802188655632,44.584630178723096,41,1658405862094
107.03836402193093,44.66580446196445,40,1658405862135
106.99591944804337,44.603663603220205,41,1658405862176
106.90011200853212,44.42146647619684,40,1658405862217
106.4764252673545,43.826637279682984,40,1658405862258
105.86232550476029,42.99433357700985,40,1658405862299
105.75550373524538,42.775458206728736,40,1658405862340
105.60715844006626,42.64492405763852,40,1658405862380
105.54109775706235,42.647266938688816,41,1658405862422
105.8096917288292,43.045450066071965,41,1658405862464
105.91014101590645,43.1688232339009,39,1658405862504
105.94778058863295,43.212963867969,41,1658405862545
105.97481971237318,43.23721671572579,40,1658405862586
105.99301719961238,43.272094490151076,42,1658405862628
106.01675759548044,43.319328820570405,39,1658405862668
106.13877651843148,43.48389429348962,42,1658405862710
106.27000507418813,43.648207458449995,39,1658405862749
106.36100297038718,43.75492013767539,41,1658405862791
106.50824263883283,43.985910448930184,40,1658405862832
106.63037215934986,44.08712071265501,41,1658405862873
106.70494545688581,44.19373025089863,40,1658405862914
106.77603289772088,44.32003528096894,40,1658405862955
106.77703538388312,44.34284003767626,42,1658405862997
106.80885688754915,44.42208148166019,40,1658405863037
106.89283990109061,44.51560005160637,40,1658405863078
106.95514620843801,44.60597034652735,40,1658405863119
106.60312904504076,44.07166599778975,40,1658405863160
106.18884283994214,43.451580175407074,41,1658405863201
105.87118428004044,43.07682813619855,42,1658405863243
105.66156110531034,42.7409077686912,40,1658405863284
105.5086738380096,42.62239244947364,43,1658405863327
105.42499960902569,42.546580236351126,37,1658405863364
105.59343272217916,42.77093897512356,40,1658405863405
105.78669904394758,43.01760248823299,42,1658405863448
105.8609594762803,43.14859757036779,40,1658405863489
105.9901545423275,43.2834661761811,40,1658405863530
106.01483094381257,43.3088506140499,39,1658405863570
106.06009155240588,43.37553616629104,41,1658405863611
106.10977038552704,43.47476829757763,41,1658405863652
106.29314125035535,43.72736137326887,40,1658405863692
106.35109666959102,43.78562012983197,41,1658405863734
106.39720692358799,43.871380421318186,41,1658405863775
106.48138780299996,44.005721647480016,41,1658405863817
106.53677199337056,44.11103608898367,40,1658405863858
106.56115357957458,44.18536642371308,40,1658405863898
106.61828403361471,44.23413842373255,41,1658405863939
106.66801356996058,44.27535302608116,40,1658405863980
106.69916438084056,44.36896751870656,42,1658405864022
106.74488215025133,44.456284831318335,40,1658405864063
106.66732243664654,44.364987212558056,39,1658405864103
106.29986664929152,43.78665606804108,41,1658405864144
105.88537132891099,43.25373481944077,42,1658405864186
105.60400107872272,42.88359330481323,40,1658405864226
105.29216822188295,42.50095680959973,40,1658405864267
105.16596994747312,42.426509558146684,40,1658405864308
105.09076764694396,42.41805577852069,40,1658405864348
105.23498443054342,42.62651077220837,41,1658405864390
105.42897798547,42.83263305869107,40,1658405864430
105.45242659890505,42.90942337128987,41,1658405864471
105.44901589335825,42.93768120217929,41,1658405864513
105.46146696087737,42.909011041193914,42,1658405864555
105.6929077057942,43.21550364278689,39,1658405864595
105.76440838540447,43.27816755367999,41,1658405864636
105.83266993274293,43.39934797766305,41,1658405864677
106.0256057524013,43.56969099998582,40,1658405864718
106.08973578820417,43.68268479496269,41,1658405864759
106.23396348958192,43.909550403709645,41,1658405864800
106.3597043708956,44.02043176966103,40,1658405864841
106.38537042963628,44.089968338104754,41,1658405864882
106.43744390044878,44.12796394557892,41,1658405864923
106.56405850616227,44.33567165200607,40,1658405864964
106.64306904829334,44.4199695322394,41,1658405865005
106.69488254529472,44.48966779096988,40,1658405865045
106.53795747990398,44.23060163418533,42,1658405865088
105.7573991106675,43.140171547951645,39,1658405865128
105.52938316603843,42.877342335327704,41,1658405865169
105.34918455111136,42.638376700550516,40,1658405865210
105.18000089351011,42.462498880775755,42,1658405865252
105.17734055913456,42.48840822082937,39,1658405865291
105.40118123295042,42.79929150029332,40,1658405865332
105.43945189375324,42.886407422877745,41,1658405865374
105.488076223841,42.978994375701255,41,1658405865415
105.54252481414989,43.002988152813224,41,1658405865457
105.59481710813867,43.08167089383219,40,1658405865498
105.66371171368394,43.19512592200137,40,1658405865538
105.68056979667165,43.24847081352734,40,1658405865579
105.7538754169488,43.331633824929,42,1658405865621
105.86881534187091,43.471088306809776,39,1658405865660
105.86881534187091,43.471088306809776,41,1658405865702
105.98581367644937,43.61954357960013,40,1658405865743
105.99404383564132,43.62945652803171,41,1658405865784
105.92329526878416,43.584261637933004,44,1658405865828
105.9470829182834,43.65547847644651,37,1658405865866
105.94120655980896,43.669942072268455,40,1658405865907
106.08562416074471,43.829623887622795,41,1658405865948
106.0949332671695,43.89925406924936,41,1658405865989
106.00848453423811,43.77579434353171,40,1658405866030
105.2698149423515,42.77242938062291,41,1658405866071
104.99739825106667,42.41080935368345,40,1658405866112
104.81531689532386,42.205022465165044,41,1658405866153
104.6955642874272,42.07176204772958,40,1658405866194
104.6590805509394,42.102219932976915,40,1658405866235
104.81783217451681,42.30256185105911,41,1658405866276
104.93137459397002,42.44774506085991,40,1658405866317
104.97789952212298,42.503566575034085,41,1658405866358
104.94794231125536,42.4967814639979,40,1658405866399
104.97593648306002,42.52540080784983,40,1658405866440
105.02863434147048,42.591698588831704,40,1658405866481
105.08125599346931,42.6450926441583,41,1658405866522
105.24972909145583,42.84150099583041,41,1658405866564
105.32868953903426,42.94260367213658,39,1658405866604
105.3732716438335,43.0290150418241,41,1658405866645
105.4241413167498,43.098965076245946,40,1658405866686
105.46903189244563,43.189859519492316,41,1658405866728
105.53604547264683,43.261691371795486,40,1658405866768
105.57872137376626,43.28936977496845,41,1658405866809
105.63738185151033,43.38962054721733,40,1658405866850
105.7416976987655,43.49046982819397,41,1658405866891
105.68586902558769,43.470364808922916,41,1658405866932
105.4355307124697,43.149489573903374,41,1658405866974
104.97228055865708,42.57820394201021,39,1658405867014
104.66894867867649,42.14897956830859,41,1658405867055
104.32992299773701,41.76900726230406,41,1658405867096
104.23168087669927,41.6869212442043,41,1658405867138
104.25683161440293,41.734002612411395,40,1658405867178
104.41309302657896,41.90276970911117,40,1658405867219
104.57822932298853,42.11025020596089,40,1658405867260
104.6904950921031,42.29539785304878,41,1658405867301
104.76128352205893,42.32085345705304,41,1658405867342
104.78573987929371,42.374412921661225,41,1658405867384
104.83512306296495,42.42070649202161,40,1658405867424
105.02735769486185,42.64514309329898,40,1658405867465
105.14794501247047,42.82378014567783,40,1658405867505
105.28437662154289,42.958216379486984,41,1658405867547
105.35357418195844,43.08457178615327,40,1658405867588
105.49284891893069,43.21438458236112,41,1658405867630
105.6804857724702,43.4411014195903,39,1658405867670
105.75230125452214,43.534157993154345,41,1658405867712
105.82586611820403,43.6350051923859,40,1658405867752
105.85173683891776,43.65720699729301,40,1658405867793
105.95259224754659,43.76488530198327,41,1658405867834
106.06755252483248,43.958971050808216,41,1658405867875
105.92812772902073,43.795518887500954,40,1658405867916
105.14801699412203,42.80588450126385,40,1658405867957
104.80288212563312,42.42503522756445,41,1658405867998
104.5940605532669,42.14449038221638,40,1658405868038
104.56178263784,42.06278790251202,42,1658405868081
104.51929193950093,42.0241407234191,40,1658405868122
104.51929193950093,42.0241407234191,40,1658405868162
104.81890543990676,42.443890687372985,40,1658405868203
104.89182398107965,42.568946453166575,41,1658405868244
104.95616977364051,42.620354489988166,40,1658405868284
105.02134170838872,42.67735182285139,41,1658405868326
104.89944962928996,42.6786580745229,40,1658405868366
104.99841837108386,42.747861542111245,42,1658405868409
105.06283771733149,42.86088717975704,41,1658405868451
105.1706963567031,42.999264999269506,39,1658405868490
105.25134715117093,43.08288592185648,41,1658405868531
105.29629732246718,43.20932464422644,39,1658405868571
105.31946348802217,43.21409111250049,42,1658405868614
105.34738641977168,43.251714955397965,40,1658405868654
105.35426288126263,43.38687473623331,41,1658405868695
105.41425135481228,43.4696491079505,40,1658405868736
105.49504884296033,43.52549071922822,41,1658405868778
105.53866814768935,43.602056650576856,39,1658405868818
105.55928763539305,43.64461601748016,40,1658405868859
105.12884653503892,42.974536784702956,41,1658405868900
104.71850952064727,42.481497495998234,41,1658405868941
104.47440112847448,42.203909044261685,41,1658405868982
104.28228449959636,42.01390727583855,41,1658405869024
104.19465637939788,41.8537927280268,40,1658405869064
104.26013103673762,41.98075631425612,40,1658405869105
104.49459749250195,42.214900935300605,40,1658405869145
104.60006192584768,42.40597340413452,41,1658405869187
104.64145298549715,42.44961730682312,41,1658405869228
104.62696893385629,42.48349132750072,41,1658405869269
104.6911018068505,42.5421252641683,40,1658405869310
104.72133252914028,42.59239260342716,42,1658405869352
104.76792212606449,42.643294785597746,40,1658405869392
104.93651148548793,42.854292712405204,41,1658405869433
104.98355750536308,42.94821636488742,41,1658405869475
105.00662621964983,43.02160153197103,39,1658405869515
105.05031329246043,43.09007912690864,41,1658405869556
105.16472884561335,43.213772768690404,57,1658405869614
105.14829978245143,43.21291125727448,24,1658405869638
104.99893149038985,43.105234247516925,41,1658405869679
105.09128311786003,43.208372149416036,41,1658405869720
105.16608088379303,43.36605604179784,40,1658405869761
105.16448880369063,43.34921824466925,41,1658405869802
104.92665526873259,43.05479691726,40,1658405869843
104.56585178067246,42.546712612686335,42,1658405869885
104.16965471987658,42.1063783257153,39,1658405869925
103.8117560695618,41.651322210851944,41,1658405869966
103.69456368085753,41.56894309014255,41,1658405870007
103.76063093887535,41.57599510923048,40,1658405870048
103.82480364207618,41.72043339156949,41,1658405870090
104.01789456085282,41.98948655293416,40,1658405870130
104.05980371599844,41.99863293359595,41,1658405870171
104.0347212631541,42.01859809283863,41,1658405870212
104.07016656521006,42.016195631836624,41,1658405870254
104.09314846523785,42.057963430809195,40,1658405870294
104.18863340930375,42.19342949578049,41,1658405870335
104.26872678365646,42.26039201356212,40,1658405870376
104.32354016787548,42.37377931679938,40,1658405870416
104.34893712815062,42.43855959809162,41,1658405870458
104.59521520640999,42.65028187613211,43,1658405870501
104.61696862460337,42.70093605217077,39,1658405870541
104.6373562757575,42.72983863732215,39,1658405870581
104.67115817835423,42.78275752227982,40,1658405870622
104.73711273575105,42.8715530960919,41,1658405870663
104.79124567147744,42.922863134979586,40,1658405870704
104.73046040356411,42.906812893129626,40,1658405870744
104.6649347995309,42.854363027419794,41,1658405870786
103.99088136823497,42.014022033744915,41,1658405870827
103.99088136823497,42.014022033744915,40,1658405870868
103.49445673973173,41.42581014313176,40,1658405870909
103.40526222708434,41.31415156703675,42,1658405870951
103.4502384729393,41.33510969409237,40,1658405870991
103.59633544771401,41.48325716237812,41,1658405871033
103.70133973520632,41.62168639118646,41,1658405871074
103.71015559961955,41.68922340589833,39,1658405871114
103.71605378246068,41.671029854299974,41,1658405871155
103.68039295219546,41.66446288271194,40,1658405871196
103.76634018552187,41.74571132912809,41,1658405871237
103.69042124476164,41.742453419420706,41,1658405871278
103.72860044980013,41.8298182183531,40,1658405871319
103.84872946995148,41.913331696078274,41,1658405871360
103.93928094983482,42.06401115033154,41,1658405871401
104.04586663939006,42.17085430766261,40,1658405871442
104.15372372910645,42.31081200503067,41,1658405871483
104.2074145763616,42.36104553470353,40,1658405871524
104.51662277005641,42.613601569003166,40,1658405871565
104.65596715334652,42.80095444380327,41,1658405871606
104.77103505062252,42.926661384227735,40,1658405871647
104.85329911850732,42.983482011849546,41,1658405871688
104.67936539145984,42.77589362179877,40,1658405871729
104.33764288498725,42.30287179831114,41,1658405871770
103.97354918130736,41.88191433701171,40,1658405871811
103.75630339189337,41.64407112552534,42,1658405871853
103.64190543834695,41.48590365007517,40,1658405871894
103.6016827189917,41.44169018019344,40,1658405871934
103.71689571621062,41.606143889554055,41,1658405871975
103.89644153669906,41.78409903383559,41,1658405872017
103.9824780711927,41.92142677398194,40,1658405872058
104.03146803987136,42.01870119933887,40,1658405872098
104.06835574704365,42.042375185603625,41,1658405872139
104.15296667915885,42.152420309285596,40,1658405872180
104.25310530717218,42.20596651855646,41,1658405872222
104.3551063205856,42.38532734993292,40,1658405872262
104.48763496343491,42.50705159489048,41,1658405872304
104.57808704362145,42.63103885288857,39,1658405872343
104.58530555164464,42.660142121863686,41,1658405872385
104.64777411941611,42.73632084870199,40,1658405872425
104.6965239424095,42.81770471229132,41,1658405872467
104.74637476555108,42.88455765733877,41,1658405872508
104.81992969278986,42.928099091292225,40,1658405872549
104.83517120739361,42.976498830739935,41,1658405872590
104.72157548353312,42.90010720049758,40,1658405872631
104.55670344096688,42.66725441639639,41,1658405872672
104.09403705886712,42.112368700971274,40,1658405872712
103.73498501886985,41.68563925676651,41,1658405872754
103.52729006784301,41.439719589714095,40,1658405872795
103.211935516577,41.078783993416806,41,1658405872836
103.24742900951742,41.12644283876865,40,1658405872877
103.33407312514106,41.27975261095913,41,1658405872918
103.4315325943682,41.44906408705605,41,1658405872960
103.60450096797501,41.606188943748464,40,1658405873000
103.600157828139,41.56606703175795,40,1658405873041
103.60669769944366,41.58260227677139,41,1658405873083
103.6392595974857,41.68068972378112,43,1658405873126
103.76143457478003,41.81045075176842,38,1658405873164
103.8657503518429,41.88162680137981,41,1658405873206
103.9362047232811,41.97513378745763,40,1658405873246
103.98955319915285,42.07764935983094,41,1658405873287
104.0846279149115,42.17626425750827,40,1658405873328
104.1845094988775,42.317975106362454,40,1658405873369
104.18152865037717,42.287013134625006,40,1658405873410
104.25780778016411,42.319513493811954,42,1658405873452
104.28846263357553,42.45708184116771,39,1658405873491
104.44467586232713,42.60280325805121,42,1658405873534
104.48283992482715,42.640948823158766,40,1658405873574
104.34956163375296,42.44513360862845,40,1658405873614
104.00625016886835,42.03313336582511,42,1658405873657
103.6493758328125,41.61067836255385,40,1658405873697
103.33086086056659,41.1859945536027,40,1658405873738
103.23275502474837,41.1058378464576,41,1658405873779
103.23324528172395,41.07591028502111,40,1658405873820
103.46862490451144,41.43628126431394,40,1658405873861
103.57074518982967,41.529776379139484,40,1658405873902
103.60918659719874,41.57225440658654,41,1658405873943
103.6102562905827,41.576680429753445,42,1658405873985
103.63485599125852,41.59510090380755,39,1658405874025
103.71678364664172,41.727832575380404,40,1658405874066
103.78221339314393,41.78238430835063,42,1658405874108
103.85853593565531,41.85096432019249,40,1658405874149
103.92239668852596,41.96477382158856,40,1658405874189
104.03443755011796,42.08039185988409,40,1658405874230
104.09770410043501,42.126453938767106,42,1658405874273
104.1304591339998,42.19996249656498,38,1658405874312
104.17078681689031,42.211021717338795,41,1658405874353
104.23224658187439,42.292600589698786,41,1658405874394
104.29020776433526,42.33949990649191,40,1658405874435
104.4292500008138,42.521208178130465,40,1658405874476
104.42790848231726,42.51755869834694,40,1658405874517
103.88843044415216,41.798414022152166,41,1658405874558
103.50991653089386,41.331588661758566,40,1658405874599
103.22655504537875,41.03959275705454,41,1658405874640
103.02487418461692,40.85537383550261,40,1658405874681
102.93859465605658,40.715908713825606,41,1658405874722
102.96774768202783,40.745714657932844,40,1658405874763
103.10015704551222,40.92625199811895,40,1658405874804
103.18412492770534,41.01113026622393,41,1658405874845
103.23551003593298,41.06824403246545,40,1658405874886
103.26861239977768,41.084298404852674,41,1658405874927
103.2629587016562,41.1138441763899,41,1658405874968
103.31258419679983,41.16025132433473,42,1658405875010
103.33089304185171,41.190468054022155,39,1658405875050
103.38891530310582,41.25512011050576,41,1658405875091
103.49219737981457,41.43325169436259,41,1658405875132
103.56970320577199,41.502022113331634,41,1658405875173
103.62518926036756,41.577388304919666,41,1658405875214
103.68474940041574,41.623201665045556,41,1658405875256
103.74210349614413,41.64816069056155,39,1658405875296
103.8503194575108,41.76198582475042,42,1658405875338
103.91918541274674,41.85917323533581,39,1658405875377
104.01806414534724,42.002860609639846,41,1658405875419
103.92840595214068,41.836780356541254,40,1658405875460
103.58771935656966,41.40322150950889,40,1658405875500
103.08631080039788,40.858227283569136,42,1658405875543
102.8174993526714,40.58290552580483,39,1658405875583
102.53415552949514,40.25906564617137,42,1658405875625
102.44348094426016,40.233401674352265,39,1658405875665
102.50879809322561,40.29390979991198,41,1658405875706
102.65911623844647,40.454563277024256,40,1658405875747
102.7992770194075,40.61168031033972,41,1658405875788
102.97251902617097,40.80404854816025,41,1658405875829
102.99709738941772,40.79319734613153,40,1658405875870
103.03056471671903,40.83896800842843,41,1658405875911
103.14293700275397,41.00283384964433,41,1658405875952
103.14293700275397,41.00283384964433,41,1658405875993
103.27772110188147,41.12655608310413,40,1658405876034
103.29897111680157,41.2018465848755,42,1658405876076
103.32863641231165,41.20591233407552,39,1658405876115
103.31708304442611,41.25788913989437,41,1658405876157
103.36825177230361,41.363714651903884,41,1658405876198
103.37690354586869,41.328320938396864,40,1658405876239
103.43444031338709,41.38284170824455,41,1658405876280
103.47164183420574,41.4487601347728,42,1658405876322
103.61746337523982,41.55274316222239,39,1658405876362
103.4723659053214,41.40880429729559,41,1658405876404
103.16692993781845,41.03957143961609,40,1658405876444
102.86478495737191,40.682457089013965,41,1658405876485
102.6238946296209,40.3952869285441,40,1658405876526
102.39829195584525,40.18704483224953,41,1658405876567
102.45425288513917,40.21326823342652,40,1658405876607
102.48114897536936,40.272366293037216,41,1658405876649
102.66235221986574,40.437201836371244,40,1658405876690
102.77202250411256,40.62425968466971,41,1658405876731
102.7889257742986,40.62803209828467,41,1658405876772
102.84160236547228,40.69474068324517,41,1658405876813
102.85133860975657,40.73768102192485,41,1658405876855
102.69725918528422,40.59308203560946,40,1658405876895
102.7922314094958,40.69525410885015,40,1658405876936
102.87296236928643,40.75788870868726,41,1658405876977
102.95614144886042,40.88498454144542,41,1658405877019
103.00530519695337,40.918249654376254,40,1658405877059
103.16674908899267,41.10010711635218,40,1658405877100
103.35847639159715,41.277526460001496,41,1658405877141
103.40475925920651,41.34375383154727,40,1658405877181
103.4946637116065,41.4355249253226,42,1658405877224
103.66769528198165,41.6461101701244,41,1658405877265
103.78356543437542,41.72105219484568,40,1658405877305
103.73276608664128,41.69713048360481,41,1658405877347
103.44037687986395,41.37622672064609,40,1658405877388
102.90664116585339,40.70868137880543,39,1658405877428
102.75347646484119,40.48855655866569,41,1658405877469
102.66757635222166,40.39899677893569,41,1658405877510
102.65585548797657,40.36512443726665,40,1658405877551
102.67602502465883,40.449918385700904,40,1658405877592
103.00547703539917,40.78594507342298,40,1658405877633
103.05934181364313,40.872066939295244,41,1658405877674
103.17901683501958,40.93438176489274,40,1658405877715
103.159908782618,40.98962678147982,41,1658405877756
103.27168115814646,41.072755866938905,39,1658405877796
103.34737846464918,41.18424119429225,42,1658405877838
103.3993118056053,41.21885057862263,40,1658405877879
103.45919586901948,41.318016975254686,40,1658405877920
103.55440768178642,41.43935251857968,42,1658405877962
103.72381406247291,41.632970118897376,39,1658405878001
103.77101223305243,41.70151961748453,41,1658405878042
103.88174468722605,41.816950858568404,41,1658405878084
103.9420112397811,41.86816016941529,40,1658405878125
104.03756897355726,41.99299561400436,40,1658405878166
104.24255954643189,42.18884608083435,41,1658405878207
104.33221976504109,42.27980288701932,40,1658405878248
104.16324157747164,42.06382758165111,40,1658405878289
103.82176152658599,41.6637736117472,41,1658405878330
103.52189022188622,41.27353111770497,40,1658405878371
103.3402739522432,41.04769475755041,40,1658405878412
103.22598724223502,40.92012995969071,41,1658405878453
103.03852253402056,40.774439398116684,41,1658405878494
103.15708400711122,40.99141792854681,41,1658405878535
103.29935037743769,41.13831871883958,40,1658405878576
103.4022861343638,41.21602263372713,41,1658405878617
103.39958003700997,41.2272382936645,40,1658405878658
103.40046340962385,41.2356525987236,40,1658405878698
103.34925693289267,41.17168296969273,42,1658405878740
103.36159276880039,41.2652591375945,40,1658405878781
103.4483843122407,41.354892075265916,41,1658405878822
103.53383781661796,41.46699349444931,41,1658405878864
103.60594463824742,41.49849402312609,40,1658405878904
103.68139678489621,41.62361895313198,40,1658405878945
103.71141438450275,41.61914511946354,41,1658405878986
103.6920033070387,41.63178878009963,41,1658405879027
103.8248795422868,41.74714795789,40,1658405879068
103.83000244146979,41.77880853538362,40,1658405879109
103.93065087076377,41.84970093916816,42,1658405879151
104.00418516927795,41.96064168082867,39,1658405879191
103.80638281561966,41.68198519684019,41,1658405879232
103.64200294115733,41.379354375413385,41,1658405879273
103.27356667342144,40.98258740363177,41,1658405879314
103.07831832541484,40.70719296167874,39,1658405879354
102.90135155971944,40.5308698654231,41,1658405879396
102.9132556379642,40.53691655176605,40,1658405879437
103.03346260983903,40.66665908004553,41,1658405879478
103.16485547007244,40.809242539834635,42,1658405879520
103.12506109167884,40.82905195156284,39,1658405879560
103.19702853623846,40.888854043711,40,1658405879600
103.19229317766519,40.91489533305456,41,1658405879642
103.21626961246278,40.92547419480886,41,1658405879683
103.27433063001587,41.00400390054633,40,1658405879724
103.39389473643519,41.102998330982,41,1658405879765
103.52930583926343,41.29825219431552,40,1658405879806
103.59181811850027,41.36964711182108,41,1658405879848
103.66560884865976,41.42009113870972,40,1658405879888
103.76090405898424,41.54956519628553,41,1658405879930
103.78583436858435,41.581952822690624,40,1658405879970
103.79710217130764,41.62071455918789,40,1658405880011
103.88409434388757,41.653629250131644,41,1658405880052
103.92681075034778,41.74205543551115,40,1658405880093
103.94549006742255,41.76652777754377,41,1658405880134
103.7844272403334,41.5436083172936,40,1658405880175
103.42856814915427,41.09279873505352,40,1658405880216
103.10836270455445,40.68035545973594,40,1658405880257
102.81236144692627,40.320750412763104,40,1658405880298
102.8291160824636,40.28401611785637,41,1658405880339
102.88692355337486,40.317299783112716,40,1658405880380
103.0137446216454,40.486612283103696,40,1658405880420
103.11917023222986,40.6476416845873,41,1658405880462
103.35208509085248,40.84457542152728,41,1658405880503
103.33592780126111,40.88088643997261,41,1658405880544
103.3601637192022,40.87918247949136,40,1658405880585
103.31123056047466,40.833844620930265,40,1658405880626
103.36020496986953,40.94455617829445,41,1658405880667
